,MLII
0,995
1,995
2,995
3,995
4,995
5,995
6,995
7,995
8,1000
9,997
10,995
11,994
12,992
13,993
14,992
15,989
16,988
17,987
18,990
19,993
20,989
21,988
22,986
23,988
24,993
25,997
26,993
27,986
28,983
29,977
30,979
31,975
32,974
33,972
34,969
35,969
36,969
37,971
38,973
39,971
40,969
41,966
42,966
43,966
44,966
45,967
46,965
47,963
48,967
49,969
50,969
51,968
52,967
53,963
54,966
55,964
56,968
57,966
58,964
59,961
60,960
61,957
62,952
63,947
64,947
65,943
66,933
67,927
68,927
69,939
70,958
71,980
72,1010
73,1048
74,1099
75,1148
76,1180
77,1192
78,1177
79,1128
80,1058
81,991
82,951
83,937
84,939
85,950
86,958
87,959
88,957
89,955
90,958
91,959
92,961
93,962
94,960
95,957
96,956
97,959
98,955
99,957
100,958
101,957
102,958
103,959
104,958
105,958
106,955
107,953
108,957
109,959
110,963
111,960
112,960
113,958
114,956
115,957
116,956
117,955
118,953
119,953
120,956
121,958
122,958
123,958
124,956
125,954
126,959
127,959
128,958
129,958
130,957
131,957
132,956
133,958
134,956
135,954
136,953
137,954
138,955
139,958
140,960
141,957
142,958
143,955
144,958
145,957
146,957
147,955
148,955
149,953
150,956
151,956
152,957
153,958
154,954
155,954
156,955
157,957
158,957
159,957
160,954
161,953
162,953
163,955
164,955
165,957
166,954
167,952
168,952
169,952
170,951
171,952
172,950
173,947
174,950
175,952
176,953
177,952
178,949
179,949
180,951
181,951
182,952
183,952
184,951
185,950
186,953
187,958
188,959
189,959
190,957
191,956
192,961
193,964
194,964
195,966
196,965
197,966
198,967
199,969
200,973
201,974
202,974
203,971
204,973
205,975
206,978
207,975
208,975
209,973
210,973
211,976
212,974
213,973
214,975
215,973
216,974
217,974
218,971
219,972
220,972
221,971
222,970
223,971
224,972
225,969
226,968
227,966
228,969
229,970
230,972
231,968
232,968
233,967
234,969
235,969
236,971
237,970
238,967
239,966
240,968
241,969
242,967
243,968
244,964
245,964
246,963
247,965
248,964
249,962
250,962
251,963
252,965
253,967
254,967
255,966
256,965
257,962
258,966
259,965
260,964
261,963
262,962
263,959
264,962
265,964
266,966
267,962
268,959
269,958
270,961
271,964
272,963
273,962
274,960
275,958
276,959
277,961
278,962
279,963
280,963
281,962
282,964
283,963
284,966
285,964
286,964
287,963
288,963
289,966
290,968
291,965
292,963
293,961
294,963
295,965
296,966
297,968
298,970
299,969
300,969
301,970
302,974
303,974
304,973
305,979
306,980
307,983
308,984
309,983
310,981
311,978
312,980
313,979
314,979
315,979
316,978
317,977
318,976
319,977
320,980
321,982
322,983
323,975
324,967
325,967
326,964
327,962
328,958
329,958
330,959
331,961
332,960
333,961
334,959
335,956
336,955
337,956
338,956
339,954
340,955
341,953
342,958
343,957
344,958
345,960
346,955
347,953
348,956
349,958
350,959
351,958
352,954
353,951
354,952
355,948
356,939
357,935
358,929
359,922
360,917
361,923
362,941
363,964
364,992
365,1021
366,1071
367,1122
368,1168
369,1199
370,1212
371,1205
372,1175
373,1122
374,1057
375,1002
376,970
377,946
378,934
379,929
380,933
381,939
382,946
383,946
384,947
385,946
386,948
387,948
388,948
389,945
390,947
391,947
392,947
393,949
394,945
395,942
396,942
397,944
398,945
399,946
400,943
401,945
402,947
403,949
404,946
405,946
406,943
407,942
408,942
409,946
410,946
411,945
412,943
413,941
414,944
415,942
416,943
417,942
418,941
419,942
420,944
421,944
422,945
423,946
424,943
425,942
426,946
427,946
428,947
429,947
430,942
431,943
432,945
433,946
434,949
435,946
436,945
437,942
438,944
439,946
440,946
441,947
442,943
443,941
444,941
445,944
446,945
447,943
448,941
449,940
450,940
451,942
452,941
453,939
454,940
455,937
456,938
457,938
458,940
459,938
460,934
461,933
462,934
463,937
464,935
465,934
466,933
467,930
468,932
469,933
470,934
471,933
472,930
473,929
474,932
475,934
476,935
477,936
478,937
479,936
480,942
481,945
482,950
483,951
484,952
485,951
486,956
487,959
488,961
489,960
490,958
491,958
492,960
493,962
494,964
495,964
496,960
497,960
498,961
499,963
500,963
501,965
502,960
503,958
504,963
505,962
506,964
507,964
508,960
509,959
510,962
511,963
512,961
513,963
514,961
515,961
516,962
517,965
518,966
519,963
520,962
521,960
522,961
523,964
524,961
525,961
526,961
527,958
528,961
529,960
530,961
531,959
532,957
533,956
534,957
535,957
536,958
537,959
538,955
539,954
540,955
541,957
542,958
543,958
544,955
545,955
546,955
547,960
548,958
549,957
550,956
551,953
552,957
553,958
554,958
555,957
556,953
557,952
558,953
559,954
560,956
561,955
562,955
563,955
564,955
565,958
566,958
567,957
568,955
569,954
570,954
571,956
572,958
573,955
574,955
575,953
576,954
577,956
578,958
579,956
580,956
581,956
582,958
583,957
584,958
585,957
586,955
587,955
588,956
589,958
590,961
591,965
592,964
593,965
594,967
595,969
596,971
597,971
598,971
599,973
600,974
601,976
602,979
603,981
604,976
605,975
606,976
607,975
608,977
609,975
610,974
611,969
612,969
613,971
614,974
615,979
616,980
617,978
618,971
619,970
620,968
621,967
622,963
623,960
624,956
625,958
626,957
627,957
628,953
629,950
630,952
631,955
632,954
633,953
634,951
635,949
636,948
637,950
638,951
639,951
640,948
641,947
642,948
643,949
644,953
645,950
646,946
647,943
648,942
649,937
650,931
651,926
652,920
653,913
654,910
655,919
656,943
657,974
658,1006
659,1048
660,1106
661,1162
662,1201
663,1216
664,1194
665,1128
666,1034
667,960
668,924
669,923
670,935
671,941
672,945
673,946
674,945
675,946
676,945
677,943
678,945
679,943
680,946
681,945
682,945
683,942
684,943
685,944
686,944
687,941
688,943
689,940
690,941
691,943
692,943
693,940
694,940
695,937
696,940
697,942
698,942
699,943
700,939
701,938
702,940
703,941
704,942
705,942
706,939
707,940
708,944
709,945
710,944
711,944
712,945
713,941
714,943
715,946
716,944
717,944
718,941
719,939
720,939
721,941
722,941
723,942
724,939
725,939
726,940
727,941
728,944
729,944
730,942
731,939
732,942
733,943
734,945
735,944
736,944
737,943
738,947
739,944
740,946
741,946
742,944
743,941
744,943
745,943
746,942
747,941
748,940
749,940
750,939
751,941
752,941
753,942
754,937
755,938
756,937
757,940
758,940
759,940
760,940
761,939
762,939
763,941
764,945
765,945
766,946
767,949
768,952
769,956
770,957
771,958
772,957
773,957
774,959
775,960
776,963
777,963
778,961
779,962
780,963
781,964
782,964
783,964
784,962
785,962
786,962
787,961
788,964
789,963
790,961
791,960
792,959
793,962
794,963
795,963
796,960
797,959
798,963
799,962
800,965
801,962
802,959
803,958
804,960
805,960
806,960
807,959
808,954
809,954
810,956
811,957
812,958
813,957
814,956
815,952
816,954
817,954
818,953
819,952
820,953
821,951
822,953
823,954
824,956
825,953
826,954
827,951
828,951
829,954
830,953
831,954
832,950
833,948
834,950
835,952
836,951
837,952
838,951
839,948
840,950
841,951
842,954
843,954
844,954
845,950
846,951
847,955
848,955
849,956
850,953
851,951
852,952
853,953
854,953
855,953
856,949
857,947
858,953
859,952
860,953
861,952
862,952
863,950
864,952
865,955
866,953
867,955
868,955
869,955
870,956
871,962
872,963
873,963
874,962
875,963
876,966
877,967
878,969
879,968
880,968
881,969
882,971
883,973
884,975
885,972
886,971
887,969
888,968
889,971
890,970
891,969
892,968
893,969
894,968
895,969
896,971
897,973
898,976
899,972
900,968
901,962
902,962
903,955
904,952
905,948
906,947
907,948
908,950
909,949
910,947
911,946
912,945
913,947
914,947
915,947
916,945
917,943
918,944
919,949
920,949
921,946
922,945
923,941
924,943
925,944
926,946
927,943
928,939
929,932
930,929
931,923
932,922
933,919
934,916
935,904
936,895
937,898
938,909
939,925
940,947
941,970
942,1001
943,1042
944,1098
945,1151
946,1186
947,1196
948,1178
949,1119
950,1037
951,963
952,924
953,920
954,929
955,942
956,946
957,946
958,944
959,942
960,943
961,947
962,946
963,945
964,943
965,942
966,943
967,944
968,946
969,945
970,942
971,941
972,942
973,945
974,943
975,942
976,943
977,943
978,942
979,946
980,947
981,946
982,945
983,944
984,944
985,944
986,945
987,945
988,943
989,943
990,944
991,945
992,947
993,949
994,947
995,945
996,946
997,947
998,949
999,947
1000,945
1001,945
1002,947
1003,949
1004,949
1005,947
1006,945
1007,946
1008,946
1009,951
1010,949
1011,947
1012,945
1013,948
1014,947
1015,949
1016,948
1017,946
1018,948
1019,949
1020,949
1021,949
1022,949
1023,948
1024,946
1025,946
1026,951
1027,950
1028,949
1029,947
1030,946
1031,946
1032,949
1033,951
1034,947
1035,948
1036,946
1037,949
1038,949
1039,951
1040,950
1041,947
1042,945
1043,947
1044,947
1045,950
1046,951
1047,950
1048,949
1049,954
1050,957
1051,960
1052,961
1053,960
1054,959
1055,961
1056,965
1057,967
1058,964
1059,965
1060,967
1061,967
1062,968
1063,970
1064,968
1065,966
1066,965
1067,965
1068,966
1069,968
1070,966
1071,965
1072,962
1073,965
1074,967
1075,968
1076,969
1077,965
1078,963
1079,964
1080,965
1081,965
1082,967
1083,964
1084,963
1085,964
1086,965
1087,964
1088,963
1089,961
1090,962
1091,961
1092,965
1093,964
1094,962
1095,958
1096,956
1097,958
1098,960
1099,960
1100,961
1101,959
1102,957
1103,958
1104,961
1105,960
1106,960
1107,958
1108,955
1109,956
1110,957
1111,958
1112,957
1113,955
1114,954
1115,955
1116,956
1117,957
1118,957
1119,958
1120,957
1121,956
1122,957
1123,960
1124,956
1125,956
1126,954
1127,951
1128,952
1129,955
1130,955
1131,954
1132,954
1133,954
1134,956
1135,956
1136,955
1137,955
1138,948
1139,952
1140,952
1141,955
1142,955
1143,954
1144,953
1145,955
1146,958
1147,958
1148,957
1149,957
1150,956
1151,958
1152,960
1153,966
1154,966
1155,964
1156,963
1157,967
1158,968
1159,969
1160,968
1161,969
1162,970
1163,971
1164,974
1165,978
1166,975
1167,976
1168,973
1169,973
1170,975
1171,977
1172,973
1173,971
1174,972
1175,973
1176,970
1177,971
1178,968
1179,973
1180,974
1181,975
1182,971
1183,968
1184,964
1185,961
1186,959
1187,957
1188,955
1189,958
1190,957
1191,955
1192,952
1193,954
1194,956
1195,957
1196,955
1197,952
1198,951
1199,949
1200,950
1201,951
1202,951
1203,948
1204,949
1205,949
1206,951
1207,950
1208,952
1209,950
1210,948
1211,951
1212,952
1213,954
1214,953
1215,950
1216,947
1217,945
1218,938
1219,935
1220,927
1221,921
1222,911
1223,913
1224,929
1225,953
1226,980
1227,1013
1228,1061
1229,1119
1230,1165
1231,1188
1232,1180
1233,1131
1234,1053
1235,984
1236,940
1237,924
1238,928
1239,934
1240,942
1241,944
1242,946
1243,946
1244,944
1245,943
1246,939
1247,939
1248,943
1249,945
1250,943
1251,943
1252,941
1253,943
1254,947
1255,946
1256,945
1257,945
1258,945
1259,945
1260,947
1261,946
1262,946
1263,944
1264,939
1265,942
1266,944
1267,945
1268,944
1269,943
1270,939
1271,941
1272,943
1273,943
1274,943
1275,942
1276,941
1277,943
1278,940
1279,943
1280,942
1281,942
1282,940
1283,941
1284,943
1285,945
1286,945
1287,945
1288,944
1289,945
1290,945
1291,943
1292,943
1293,940
1294,937
1295,941
1296,943
1297,945
1298,946
1299,941
1300,943
1301,943
1302,944
1303,945
1304,945
1305,943
1306,940
1307,941
1308,944
1309,945
1310,944
1311,943
1312,939
1313,939
1314,939
1315,940
1316,939
1317,934
1318,935
1319,934
1320,937
1321,935
1322,930
1323,933
1324,932
1325,936
1326,937
1327,939
1328,938
1329,935
1330,934
1331,935
1332,938
1333,940
1334,942
1335,939
1336,940
1337,943
1338,948
1339,950
1340,951
1341,951
1342,951
1343,955
1344,958
1345,961
1346,963
1347,963
1348,960
1349,962
1350,962
1351,963
1352,962
1353,961
1354,960
1355,961
1356,963
1357,963
1358,965
1359,962
1360,960
1361,962
1362,961
1363,965
1364,964
1365,963
1366,964
1367,967
1368,968
1369,966
1370,965
1371,963
1372,959
1373,963
1374,964
1375,964
1376,961
1377,959
1378,957
1379,959
1380,961
1381,960
1382,957
1383,958
1384,956
1385,959
1386,959
1387,960
1388,961
1389,957
1390,957
1391,955
1392,957
1393,959
1394,958
1395,961
1396,957
1397,958
1398,958
1399,958
1400,958
1401,957
1402,956
1403,958
1404,960
1405,961
1406,959
1407,957
1408,953
1409,955
1410,956
1411,957
1412,960
1413,959
1414,954
1415,958
1416,961
1417,961
1418,958
1419,958
1420,957
1421,957
1422,958
1423,958
1424,958
1425,956
1426,956
1427,956
1428,959
1429,959
1430,959
1431,955
1432,954
1433,956
1434,958
1435,960
1436,962
1437,963
1438,963
1439,969
1440,970
1441,973
1442,972
1443,971
1444,972
1445,974
1446,977
1447,977
1448,980
1449,977
1450,977
1451,980
1452,978
1453,979
1454,977
1455,975
1456,973
1457,976
1458,978
1459,978
1460,974
1461,973
1462,974
1463,978
1464,983
1465,985
1466,982
1467,978
1468,970
1469,970
1470,967
1471,967
1472,962
1473,958
1474,956
1475,956
1476,955
1477,954
1478,954
1479,956
1480,953
1481,955
1482,956
1483,956
1484,955
1485,953
1486,950
1487,953
1488,950
1489,955
1490,956
1491,952
1492,948
1493,952
1494,955
1495,954
1496,954
1497,953
1498,948
1499,946
1500,945
1501,939
1502,933
1503,929
1504,922
1505,915
1506,916
1507,925
1508,943
1509,965
1510,992
1511,1032
1512,1087
1513,1143
1514,1184
1515,1201
1516,1183
1517,1128
1518,1050
1519,981
1520,939
1521,924
1522,926
1523,934
1524,944
1525,946
1526,945
1527,945
1528,944
1529,946
1530,948
1531,947
1532,947
1533,944
1534,942
1535,942
1536,946
1537,946
1538,943
1539,943
1540,941
1541,942
1542,945
1543,945
1544,944
1545,941
1546,941
1547,941
1548,944
1549,946
1550,946
1551,942
1552,941
1553,943
1554,945
1555,945
1556,945
1557,943
1558,942
1559,942
1560,944
1561,946
1562,945
1563,942
1564,939
1565,941
1566,943
1567,942
1568,943
1569,941
1570,939
1571,939
1572,942
1573,945
1574,946
1575,944
1576,942
1577,942
1578,944
1579,946
1580,942
1581,940
1582,940
1583,941
1584,941
1585,943
1586,940
1587,941
1588,939
1589,942
1590,944
1591,943
1592,944
1593,944
1594,942
1595,944
1596,945
1597,945
1598,943
1599,942
1600,939
1601,939
1602,942
1603,942
1604,940
1605,938
1606,935
1607,936
1608,937
1609,938
1610,938
1611,934
1612,935
1613,935
1614,937
1615,937
1616,935
1617,936
1618,934
1619,938
1620,938
1621,941
1622,944
1623,944
1624,947
1625,951
1626,957
1627,958
1628,959
1629,958
1630,958
1631,962
1632,965
1633,967
1634,966
1635,966
1636,962
1637,965
1638,967
1639,968
1640,964
1641,966
1642,965
1643,966
1644,968
1645,969
1646,969
1647,966
1648,966
1649,967
1650,970
1651,970
1652,970
1653,969
1654,966
1655,967
1656,969
1657,969
1658,966
1659,965
1660,963
1661,965
1662,965
1663,967
1664,966
1665,964
1666,963
1667,962
1668,965
1669,964
1670,963
1671,962
1672,959
1673,959
1674,961
1675,962
1676,961
1677,961
1678,959
1679,960
1680,962
1681,960
1682,961
1683,958
1684,958
1685,960
1686,962
1687,962
1688,962
1689,958
1690,957
1691,958
1692,960
1693,959
1694,959
1695,958
1696,957
1697,958
1698,959
1699,959
1700,960
1701,959
1702,958
1703,959
1704,961
1705,963
1706,959
1707,961
1708,957
1709,958
1710,962
1711,960
1712,958
1713,958
1714,957
1715,958
1716,958
1717,960
1718,960
1719,958
1720,958
1721,959
1722,961
1723,961
1724,961
1725,958
1726,958
1727,960
1728,961
1729,963
1730,963
1731,965
1732,961
1733,964
1734,969
1735,973
1736,973
1737,972
1738,971
1739,973
1740,977
1741,978
1742,979
1743,980
1744,980
1745,981
1746,984
1747,983
1748,983
1749,979
1750,977
1751,976
1752,978
1753,981
1754,976
1755,976
1756,974
1757,977
1758,982
1759,984
1760,980
1761,973
1762,969
1763,967
1764,964
1765,963
1766,960
1767,958
1768,959
1769,960
1770,958
1771,958
1772,957
1773,956
1774,955
1775,956
1776,957
1777,960
1778,959
1779,957
1780,955
1781,955
1782,955
1783,957
1784,956
1785,955
1786,953
1787,956
1788,956
1789,956
1790,956
1791,955
1792,953
1793,951
1794,950
1795,943
1796,935
1797,928
1798,925
1799,920
1800,917
1801,923
1802,941
1803,968
1804,997
1805,1037
1806,1084
1807,1140
1808,1186
1809,1213
1810,1208
1811,1179
1812,1113
1813,1028
1814,965
1815,935
1816,930
1817,939
1818,948
1819,952
1820,952
1821,950
1822,948
1823,948
1824,949
1825,950
1826,951
1827,950
1828,947
1829,947
1830,949
1831,950
1832,950
1833,947
1834,945
1835,947
1836,947
1837,946
1838,947
1839,945
1840,942
1841,944
1842,945
1843,948
1844,945
1845,945
1846,944
1847,944
1848,945
1849,946
1850,946
1851,945
1852,943
1853,946
1854,947
1855,949
1856,949
1857,948
1858,946
1859,947
1860,950
1861,950
1862,950
1863,949
1864,947
1865,950
1866,946
1867,949
1868,950
1869,948
1870,946
1871,946
1872,947
1873,949
1874,949
1875,947
1876,945
1877,946
1878,947
1879,949
1880,948
1881,947
1882,946
1883,948
1884,948
1885,950
1886,950
1887,951
1888,946
1889,951
1890,951
1891,952
1892,949
1893,948
1894,944
1895,946
1896,949
1897,949
1898,950
1899,947
1900,946
1901,946
1902,946
1903,946
1904,949
1905,947
1906,945
1907,948
1908,950
1909,949
1910,949
1911,946
1912,943
1913,949
1914,950
1915,952
1916,949
1917,947
1918,948
1919,950
1920,952
1921,955
1922,955
1923,958
1924,958
1925,961
1926,962
1927,965
1928,967
1929,967
1930,965
1931,968
1932,970
1933,968
1934,968
1935,968
1936,966
1937,966
1938,968
1939,969
1940,968
1941,967
1942,966
1943,966
1944,968
1945,968
1946,967
1947,966
1948,964
1949,965
1950,967
1951,968
1952,967
1953,967
1954,965
1955,967
1956,968
1957,969
1958,968
1959,966
1960,962
1961,963
1962,967
1963,970
1964,970
1965,969
1966,967
1967,967
1968,970
1969,971
1970,971
1971,971
1972,968
1973,971
1974,975
1975,977
1976,977
1977,974
1978,974
1979,975
1980,981
1981,980
1982,975
1983,973
1984,978
1985,983
1986,982
1987,980
1988,978
1989,976
1990,976
1991,975
1992,974
1993,970
1994,967
1995,961
1996,960
1997,960
1998,962
1999,958
2000,956
2001,955
2002,952
2003,951
2004,952
2005,954
2006,953
2007,949
2008,947
2009,949
2010,950
2011,951
2012,951
2013,950
2014,948
2015,952
2016,954
2017,953
2018,953
2019,954
2020,951
2021,954
2022,954
2023,956
2024,953
2025,954
2026,949
2027,951
2028,949
2029,944
2030,938
2031,929
2032,920
2033,920
2034,914
2035,910
2036,916
2037,935
2038,963
2039,996
2040,1029
2041,1076
2042,1126
2043,1171
2044,1193
2045,1199
2046,1171
2047,1104
2048,1019
2049,957
2050,928
2051,930
2052,941
2053,949
2054,951
2055,947
2056,944
2057,948
2058,946
2059,949
2060,947
2061,945
2062,943
2063,946
2064,948
2065,947
2066,947
2067,945
2068,944
2069,943
2070,944
2071,946
2072,946
2073,945
2074,944
2075,946
2076,947
2077,946
2078,947
2079,942
2080,940
2081,943
2082,942
2083,946
2084,946
2085,946
2086,944
2087,944
2088,946
2089,949
2090,948
2091,945
2092,944
2093,946
2094,944
2095,946
2096,945
2097,942
2098,941
2099,943
2100,947
2101,947
2102,948
2103,944
2104,944
2105,945
2106,946
2107,948
2108,949
2109,945
2110,945
2111,947
2112,948
2113,949
2114,947
2115,946
2116,944
2117,944
2118,947
2119,948
2120,945
2121,946
2122,944
2123,945
2124,947
2125,948
2126,947
2127,945
2128,943
2129,944
2130,946
2131,948
2132,948
2133,947
2134,943
2135,945
2136,944
2137,946
2138,944
2139,943
2140,939
2141,940
2142,943
2143,944
2144,943
2145,943
2146,941
2147,944
2148,946
2149,948
2150,947
2151,945
2152,943
2153,946
2154,950
2155,950
2156,950
2157,947
2158,950
2159,953
2160,955
2161,956
2162,957
2163,956
2164,953
2165,957
2166,959
2167,962
2168,963
2169,963
2170,960
2171,961
2172,962
2173,963
2174,963
2175,958
2176,959
2177,955
2178,959
2179,961
2180,961
2181,963
2182,962
2183,962
2184,964
2185,963
2186,963
2187,961
2188,960
2189,959
2190,961
2191,963
2192,961
2193,959
2194,959
2195,958
2196,961
2197,961
2198,962
2199,958
2200,956
2201,957
2202,958
2203,955
2204,953
2205,951
2206,950
2207,955
2208,956
2209,956
2210,955
2211,952
2212,951
2213,952
2214,952
2215,955
2216,953
2217,951
2218,954
2219,952
2220,954
2221,956
2222,955
2223,953
2224,950
2225,954
2226,954
2227,954
2228,955
2229,954
2230,953
2231,952
2232,955
2233,953
2234,954
2235,952
2236,950
2237,953
2238,953
2239,954
2240,953
2241,952
2242,946
2243,947
2244,952
2245,952
2246,950
2247,950
2248,946
2249,949
2250,950
2251,954
2252,956
2253,955
2254,952
2255,952
2256,954
2257,954
2258,957
2259,952
2260,951
2261,951
2262,952
2263,952
2264,951
2265,949
2266,947
2267,947
2268,951
2269,950
2270,949
2271,950
2272,949
2273,951
2274,953
2275,953
2276,952
2277,951
2278,950
2279,952
2280,954
2281,956
2282,955
2283,956
2284,954
2285,955
2286,954
2287,952
2288,954
2289,952
2290,950
2291,952
2292,952
2293,953
2294,952
2295,949
2296,949
2297,950
2298,954
2299,953
2300,952
2301,951
2302,949
2303,950
2304,951
2305,952
2306,953
2307,952
2308,952
2309,954
2310,956
2311,955
2312,955
2313,953
2314,952
2315,952
2316,951
2317,955
2318,953
2319,954
2320,952
2321,953
2322,952
2323,955
2324,957
2325,958
2326,958
2327,962
2328,963
2329,964
2330,963
2331,965
2332,963
2333,967
2334,969
2335,971
2336,973
2337,973
2338,972
2339,971
2340,973
2341,973
2342,972
2343,968
2344,966
2345,968
2346,970
2347,973
2348,969
2349,966
2350,960
2351,964
2352,965
2353,970
2354,971
2355,970
2356,967
2357,964
2358,962
2359,961
2360,960
2361,954
2362,950
2363,951
2364,951
2365,951
2366,950
2367,950
2368,950
2369,948
2370,952
2371,949
2372,949
2373,944
2374,940
2375,943
2376,944
2377,947
2378,948
2379,944
2380,941
2381,943
2382,945
2383,945
2384,945
2385,942
2386,938
2387,936
2388,933
2389,926
2390,927
2391,920
2392,910
2393,909
2394,919
2395,940
2396,963
2397,986
2398,1020
2399,1068
2400,1121
2401,1167
2402,1193
2403,1201
2404,1182
2405,1136
2406,1069
2407,1010
2408,967
2409,939
2410,924
2411,914
2412,917
2413,924
2414,931
2415,934
2416,934
2417,937
2418,940
2419,942
2420,942
2421,941
2422,940
2423,939
2424,940
2425,938
2426,938
2427,936
2428,934
2429,934
2430,938
2431,938
2432,938
2433,935
2434,935
2435,936
2436,939
2437,938
2438,938
2439,939
2440,935
2441,935
2442,938
2443,937
2444,937
2445,935
2446,935
2447,937
2448,938
2449,939
2450,938
2451,938
2452,936
2453,940
2454,938
2455,939
2456,938
2457,936
2458,936
2459,938
2460,938
2461,941
2462,939
2463,938
2464,933
2465,935
2466,935
2467,938
2468,938
2469,936
2470,936
2471,937
2472,938
2473,941
2474,941
2475,939
2476,939
2477,940
2478,943
2479,943
2480,941
2481,941
2482,939
2483,938
2484,943
2485,943
2486,943
2487,943
2488,938
2489,941
2490,942
2491,941
2492,938
2493,935
2494,931
2495,932
2496,934
2497,933
2498,932
2499,931
2500,927
2501,925
2502,929
2503,926
2504,924
2505,925
2506,921
2507,924
2508,927
2509,926
2510,927
2511,924
2512,924
2513,926
2514,928
2515,932
2516,932
2517,930
2518,931
2519,936
2520,938
2521,939
2522,942
2523,942
2524,944
2525,946
2526,948
2527,953
2528,954
2529,953
2530,954
2531,956
2532,958
2533,959
2534,963
2535,960
2536,961
2537,963
2538,964
2539,963
2540,963
2541,962
2542,958
2543,962
2544,961
2545,961
2546,960
2547,959
2548,959
2549,959
2550,962
2551,962
2552,961
2553,959
2554,958
2555,959
2556,959
2557,961
2558,960
2559,958
2560,957
2561,958
2562,961
2563,960
2564,960
2565,957
2566,957
2567,959
2568,959
2569,960
2570,960
2571,959
2572,954
2573,955
2574,955
2575,957
2576,955
2577,953
2578,953
2579,953
2580,955
2581,957
2582,957
2583,955
2584,953
2585,956
2586,957
2587,958
2588,957
2589,955
2590,954
2591,954
2592,956
2593,957
2594,958
2595,952
2596,953
2597,955
2598,957
2599,955
2600,954
2601,952
2602,948
2603,950
2604,955
2605,955
2606,954
2607,953
2608,951
2609,952
2610,955
2611,955
2612,954
2613,952
2614,952
2615,954
2616,953
2617,956
2618,955
2619,953
2620,953
2621,953
2622,956
2623,956
2624,955
2625,951
2626,950
2627,954
2628,958
2629,960
2630,961
2631,965
2632,963
2633,965
2634,964
2635,967
2636,969
2637,972
2638,969
2639,971
2640,972
2641,974
2642,975
2643,973
2644,971
2645,972
2646,972
2647,974
2648,972
2649,968
2650,968
2651,969
2652,967
2653,968
2654,973
2655,975
2656,975
2657,972
2658,967
2659,966
2660,964
2661,960
2662,957
2663,953
2664,954
2665,953
2666,953
2667,949
2668,947
2669,948
2670,952
2671,954
2672,952
2673,951
2674,950
2675,950
2676,951
2677,952
2678,951
2679,950
2680,947
2681,947
2682,951
2683,952
2684,948
2685,947
2686,945
2687,945
2688,947
2689,948
2690,945
2691,939
2692,931
2693,924
2694,921
2695,918
2696,912
2697,907
2698,918
2699,942
2700,973
2701,1003
2702,1045
2703,1095
2704,1144
2705,1186
2706,1202
2707,1190
2708,1140
2709,1061
2710,983
2711,934
2712,919
2713,925
2714,931
2715,937
2716,941
2717,941
2718,941
2719,944
2720,945
2721,943
2722,939
2723,937
2724,941
2725,941
2726,941
2727,941
2728,938
2729,940
2730,942
2731,943
2732,940
2733,942
2734,940
2735,944
2736,945
2737,947
2738,944
2739,944
2740,944
2741,944
2742,945
2743,944
2744,944
2745,944
2746,942
2747,945
2748,942
2749,944
2750,945
2751,943
2752,942
2753,941
2754,943
2755,944
2756,945
2757,943
2758,941
2759,943
2760,941
2761,942
2762,943
2763,943
2764,942
2765,943
2766,944
2767,945
2768,943
2769,943
2770,944
2771,945
2772,946
2773,945
2774,946
2775,945
2776,940
2777,941
2778,943
2779,944
2780,944
2781,941
2782,940
2783,942
2784,945
2785,944
2786,943
2787,941
2788,937
2789,941
2790,941
2791,944
2792,943
2793,940
2794,938
2795,939
2796,942
2797,942
2798,943
2799,941
2800,939
2801,939
2802,940
2803,942
2804,942
2805,940
2806,938
2807,939
2808,940
2809,943
2810,941
2811,942
2812,942
2813,947
2814,950
2815,952
2816,954
2817,954
2818,954
2819,957
2820,960
2821,963
2822,961
2823,961
2824,960
2825,963
2826,963
2827,965
2828,966
2829,965
2830,965
2831,967
2832,967
2833,970
2834,968
2835,968
2836,965
2837,968
2838,967
2839,969
2840,967
2841,965
2842,963
2843,965
2844,967
2845,967
2846,966
2847,964
2848,962
2849,965
2850,964
2851,966
2852,967
2853,963
2854,962
2855,964
2856,965
2857,963
2858,964
2859,963
2860,960
2861,960
2862,962
2863,964
2864,962
2865,960
2866,956
2867,958
2868,962
2869,961
2870,959
2871,959
2872,955
2873,958
2874,960
2875,960
2876,957
2877,957
2878,953
2879,956
2880,960
2881,961
2882,958
2883,956
2884,956
2885,954
2886,958
2887,958
2888,956
2889,954
2890,953
2891,955
2892,957
2893,957
2894,956
2895,956
2896,955
2897,957
2898,957
2899,959
2900,959
2901,957
2902,956
2903,956
2904,960
2905,961
2906,960
2907,957
2908,957
2909,960
2910,959
2911,961
2912,960
2913,960
2914,955
2915,957
2916,960
2917,962
2918,960
2919,960
2920,956
2921,958
2922,960
2923,962
2924,962
2925,962
2926,965
2927,968
2928,973
2929,974
2930,974
2931,973
2932,972
2933,976
2934,980
2935,978
2936,978
2937,981
2938,980
2939,979
2940,978
2941,978
2942,977
2943,975
2944,973
2945,976
2946,977
2947,975
2948,977
2949,978
2950,980
2951,985
2952,980
2953,975
2954,972
2955,970
2956,966
2957,964
2958,963
2959,963
2960,960
2961,958
2962,954
2963,954
2964,957
2965,957
2966,957
2967,956
2968,954
2969,954
2970,955
2971,957
2972,955
2973,953
2974,950
2975,954
2976,955
2977,957
2978,957
2979,957
2980,953
2981,953
2982,955
2983,953
2984,945
2985,934
2986,928
2987,923
2988,919
2989,915
2990,924
2991,945
2992,973
2993,1010
2994,1053
2995,1109
2996,1161
2997,1199
2998,1209
2999,1183
3000,1118
3001,1028
3002,959
3003,930
3004,927
3005,942
3006,951
3007,953
3008,951
3009,948
3010,947
3011,948
3012,950
3013,950
3014,949
3015,947
3016,945
3017,947
3018,948
3019,947
3020,949
3021,946
3022,943
3023,943
3024,946
3025,947
3026,947
3027,946
3028,942
3029,944
3030,946
3031,947
3032,947
3033,945
3034,946
3035,945
3036,948
3037,949
3038,948
3039,947
3040,944
3041,947
3042,948
3043,949
3044,948
3045,945
3046,945
3047,947
3048,949
3049,950
3050,951
3051,947
3052,945
3053,947
3054,947
3055,950
3056,949
3057,950
3058,949
3059,949
3060,950
3061,953
3062,951
3063,948
3064,949
3065,950
3066,948
3067,951
3068,950
3069,949
3070,946
3071,948
3072,949
3073,948
3074,950
3075,949
3076,948
3077,947
3078,947
3079,950
3080,949
3081,949
3082,948
3083,948
3084,948
3085,948
3086,949
3087,946
3088,945
3089,947
3090,947
3091,949
3092,949
3093,947
3094,947
3095,946
3096,950
3097,951
3098,951
3099,949
3100,947
3101,954
3102,955
3103,959
3104,959
3105,958
3106,959
3107,959
3108,961
3109,961
3110,961
3111,964
3112,964
3113,967
3114,970
3115,971
3116,972
3117,969
3118,967
3119,971
3120,973
3121,974
3122,970
3123,968
3124,967
3125,967
3126,968
3127,970
3128,970
3129,970
3130,967
3131,968
3132,969
3133,970
3134,971
3135,969
3136,966
3137,967
3138,967
3139,969
3140,970
3141,968
3142,965
3143,968
3144,970
3145,970
3146,969
3147,967
3148,964
3149,965
3150,966
3151,965
3152,964
3153,966
3154,963
3155,965
3156,966
3157,965
3158,966
3159,962
3160,960
3161,961
3162,961
3163,964
3164,963
3165,961
3166,958
3167,960
3168,963
3169,961
3170,963
3171,961
3172,959
3173,962
3174,965
3175,964
3176,963
3177,962
3178,959
3179,961
3180,961
3181,963
3182,963
3183,959
3184,960
3185,960
3186,962
3187,963
3188,960
3189,960
3190,960
3191,962
3192,963
3193,966
3194,967
3195,966
3196,963
3197,962
3198,964
3199,964
3200,962
3201,961
3202,961
3203,962
3204,965
3205,964
3206,965
3207,961
3208,962
3209,966
3210,971
3211,976
3212,973
3213,976
3214,974
3215,979
3216,979
3217,981
3218,982
3219,984
3220,985
3221,985
3222,988
3223,989
3224,988
3225,983
3226,981
3227,982
3228,982
3229,982
3230,982
3231,981
3232,979
3233,982
3234,988
3235,990
3236,987
3237,976
3238,973
3239,973
3240,970
3241,969
3242,967
3243,964
3244,964
3245,961
3246,963
3247,964
3248,965
3249,964
3250,961
3251,962
3252,962
3253,964
3254,964
3255,963
3256,961
3257,959
3258,960
3259,960
3260,960
3261,959
3262,956
3263,957
3264,959
3265,961
3266,960
3267,955
3268,950
3269,945
3270,939
3271,935
3272,931
3273,922
3274,918
3275,927
3276,950
3277,977
3278,1006
3279,1045
3280,1099
3281,1155
3282,1188
3283,1197
3284,1171
3285,1114
3286,1036
3287,970
3288,938
3289,932
3290,941
3291,947
3292,951
3293,953
3294,953
3295,955
3296,954
3297,954
3298,952
3299,955
3300,956
3301,956
3302,957
3303,957
3304,953
3305,955
3306,956
3307,957
3308,956
3309,954
3310,951
3311,952
3312,951
3313,954
3314,955
3315,951
3316,952
3317,954
3318,953
3319,954
3320,953
3321,954
3322,952
3323,957
3324,957
3325,958
3326,956
3327,954
3328,954
3329,955
3330,957
3331,955
3332,953
3333,953
3334,950
3335,953
3336,954
3337,955
3338,951
3339,951
3340,950
3341,951
3342,953
3343,955
3344,955
3345,955
3346,956
3347,957
3348,959
3349,957
3350,955
3351,954
3352,954
3353,953
3354,953
3355,952
3356,954
3357,952
3358,951
3359,955
3360,955
3361,958
3362,954
3363,955
3364,953
3365,954
3366,956
3367,957
3368,954
3369,951
3370,948
3371,947
3372,953
3373,952
3374,953
3375,950
3376,947
3377,950
3378,950
3379,954
3380,955
3381,951
3382,951
3383,952
3384,955
3385,958
3386,958
3387,958
3388,957
3389,961
3390,962
3391,967
3392,966
3393,966
3394,964
3395,968
3396,969
3397,972
3398,972
3399,970
3400,971
3401,973
3402,974
3403,975
3404,975
3405,973
3406,971
3407,972
3408,973
3409,976
3410,974
3411,973
3412,969
3413,969
3414,971
3415,970
3416,969
3417,968
3418,966
3419,968
3420,969
3421,970
3422,970
3423,968
3424,966
3425,968
3426,967
3427,969
3428,966
3429,968
3430,966
3431,968
3432,967
3433,969
3434,968
3435,965
3436,963
3437,964
3438,964
3439,963
3440,961
3441,960
3442,962
3443,962
3444,964
3445,962
3446,962
3447,960
3448,959
3449,962
3450,960
3451,962
3452,962
3453,961
3454,959
3455,961
3456,963
3457,961
3458,962
3459,960
3460,959
3461,959
3462,960
3463,963
3464,963
3465,964
3466,961
3467,964
3468,962
3469,961
3470,963
3471,962
3472,960
3473,962
3474,964
3475,965
3476,964
3477,961
3478,959
3479,959
3480,963
3481,962
3482,966
3483,961
3484,959
3485,960
3486,966
3487,968
3488,972
3489,972
3490,971
3491,972
3492,974
3493,978
3494,980
3495,980
3496,977
3497,980
3498,983
3499,983
3500,982
3501,982
3502,978
3503,976
3504,978
3505,979
3506,977
3507,974
3508,971
3509,972
3510,975
3511,981
3512,981
3513,975
3514,968
3515,969
3516,969
3517,965
3518,962
3519,959
3520,956
3521,956
3522,959
3523,961
3524,962
3525,961
3526,958
3527,958
3528,959
3529,959
3530,957
3531,955
3532,954
3533,954
3534,954
3535,955
3536,954
3537,951
3538,952
3539,954
3540,953
3541,955
3542,955
3543,954
3544,951
3545,948
3546,943
3547,939
3548,936
3549,930
3550,920
3551,916
3552,926
3553,946
3554,972
3555,1001
3556,1041
3557,1096
3558,1147
3559,1180
3560,1191
3561,1168
3562,1106
3563,1030
3564,973
3565,941
3566,930
3567,931
3568,937
3569,945
3570,949
3571,950
3572,949
3573,949
3574,946
3575,944
3576,948
3577,947
3578,947
3579,947
3580,947
3581,950
3582,950
3583,952
3584,948
3585,948
3586,947
3587,950
3588,950
3589,951
3590,949
3591,947
3592,946
3593,946
3594,947
3595,947
3596,945
3597,946
3598,944
3599,943
3600,946
3601,945
3602,946
3603,943
3604,943
3605,944
3606,949
3607,948
3608,946
3609,945
3610,945
3611,946
3612,946
3613,947
3614,943
3615,944
3616,943
3617,945
3618,946
3619,945
3620,946
3621,944
3622,943
3623,943
3624,946
3625,946
3626,945
3627,944
3628,944
3629,945
3630,948
3631,950
3632,948
3633,947
3634,945
3635,946
3636,948
3637,948
3638,947
3639,946
3640,946
3641,944
3642,944
3643,943
3644,941
3645,940
3646,938
3647,938
3648,939
3649,940
3650,938
3651,935
3652,931
3653,933
3654,936
3655,939
3656,937
3657,934
3658,936
3659,935
3660,939
3661,939
3662,939
3663,938
3664,938
3665,941
3666,941
3667,947
3668,949
3669,947
3670,950
3671,952
3672,954
3673,957
3674,957
3675,959
3676,960
3677,959
3678,963
3679,965
3680,964
3681,966
3682,965
3683,966
3684,966
3685,967
3686,967
3687,967
3688,966
3689,966
3690,967
3691,970
3692,970
3693,968
3694,966
3695,967
3696,969
3697,969
3698,969
3699,966
3700,963
3701,963
3702,964
3703,968
3704,966
3705,963
3706,961
3707,962
3708,965
3709,966
3710,964
3711,963
3712,963
3713,962
3714,964
3715,965
3716,963
3717,963
3718,961
3719,962
3720,962
3721,965
3722,964
3723,963
3724,962
3725,963
3726,963
3727,965
3728,964
3729,961
3730,959
3731,960
3732,960
3733,961
3734,962
3735,959
3736,957
3737,958
3738,960
3739,960
3740,962
3741,958
3742,958
3743,959
3744,962
3745,963
3746,963
3747,960
3748,958
3749,959
3750,964
3751,962
3752,963
3753,961
3754,958
3755,958
3756,958
3757,960
3758,959
3759,959
3760,957
3761,959
3762,961
3763,962
3764,961
3765,960
3766,959
3767,961
3768,962
3769,963
3770,962
3771,961
3772,960
3773,961
3774,962
3775,965
3776,965
3777,963
3778,962
3779,964
3780,968
3781,969
3782,971
3783,969
3784,969
3785,972
3786,976
3787,976
3788,977
3789,976
3790,977
3791,979
3792,981
3793,983
3794,983
3795,982
3796,981
3797,980
3798,980
3799,981
3800,980
3801,980
3802,978
3803,978
3804,976
3805,982
3806,980
3807,978
3808,973
3809,977
3810,982
3811,986
3812,983
3813,979
3814,972
3815,969
3816,968
3817,967
3818,963
3819,960
3820,961
3821,957
3822,959
3823,957
3824,960
3825,959
3826,960
3827,959
3828,959
3829,962
3830,963
3831,960
3832,960
3833,958
3834,960
3835,960
3836,958
3837,958
3838,952
3839,953
3840,958
3841,959
3842,959
3843,957
3844,954
3845,956
3846,955
3847,953
3848,947
3849,939
3850,934
3851,930
3852,927
3853,922
3854,921
3855,933
3856,959
3857,991
3858,1026
3859,1074
3860,1127
3861,1172
3862,1201
3863,1211
3864,1191
3865,1129
3866,1048
3867,978
3868,939
3869,933
3870,940
3871,948
3872,952
3873,951
3874,949
3875,948
3876,953
3877,953
3878,950
3879,949
3880,947
3881,948
3882,951
3883,950
3884,950
3885,951
3886,948
3887,950
3888,949
3889,951
3890,950
3891,948
3892,949
3893,951
3894,952
3895,952
3896,953
3897,953
3898,950
3899,951
3900,953
3901,954
3902,954
3903,954
3904,952
3905,952
3906,952
3907,954
3908,953
3909,951
3910,950
3911,952
3912,954
3913,953
3914,954
3915,953
3916,950
3917,949
3918,952
3919,954
3920,955
3921,954
3922,950
3923,950
3924,953
3925,954
3926,955
3927,952
3928,950
3929,951
3930,952
3931,954
3932,953
3933,951
3934,951
3935,950
3936,951
3937,954
3938,954
3939,952
3940,952
3941,953
3942,955
3943,954
3944,955
3945,953
3946,950
3947,951
3948,953
3949,952
3950,951
3951,951
3952,948
3953,947
3954,949
3955,950
3956,949
3957,947
3958,945
3959,949
3960,947
3961,948
3962,950
3963,947
3964,947
3965,948
3966,950
3967,952
3968,954
3969,957
3970,958
3971,961
3972,965
3973,966
3974,966
3975,967
3976,966
3977,968
3978,968
3979,972
3980,973
3981,970
3982,969
3983,972
3984,974
3985,975
3986,974
3987,972
3988,971
3989,975
3990,977
3991,975
3992,976
3993,974
3994,971
3995,974
3996,974
3997,974
3998,974
3999,973
4000,971
4001,972
4002,976
4003,974
4004,975
4005,974
4006,970
4007,971
4008,970
4009,971
4010,971
4011,969
4012,967
4013,969
4014,971
4015,970
4016,970
4017,968
4018,967
4019,967
4020,968
4021,967
4022,968
4023,967
4024,964
4025,966
4026,967
4027,970
4028,968
4029,965
4030,966
4031,966
4032,965
4033,966
4034,967
4035,963
4036,961
4037,962
4038,962
4039,966
4040,965
4041,962
4042,960
4043,961
4044,962
4045,964
4046,964
4047,961
4048,960
4049,961
4050,960
4051,966
4052,964
4053,964
4054,961
4055,962
4056,964
4057,964
4058,966
4059,962
4060,959
4061,961
4062,963
4063,963
4064,963
4065,961
4066,959
4067,960
4068,962
4069,964
4070,965
4071,961
4072,960
4073,963
4074,964
4075,966
4076,965
4077,965
4078,962
4079,965
4080,965
4081,967
4082,965
4083,965
4084,962
4085,964
4086,967
4087,968
4088,969
4089,968
4090,971
4091,975
4092,978
4093,976
4094,976
4095,976
4096,975
4097,980
4098,980
4099,981
4100,984
4101,984
4102,982
4103,983
4104,985
4105,983
4106,982
4107,981
4108,979
4109,979
4110,984
4111,984
4112,982
4113,979
4114,980
4115,985
4116,988
4117,989
4118,983
4119,975
4120,971
4121,969
4122,968
4123,967
4124,964
4125,962
4126,959
4127,960
4128,959
4129,962
4130,959
4131,958
4132,956
4133,957
4134,958
4135,959
4136,960
4137,956
4138,955
4139,956
4140,958
4141,957
4142,958
4143,956
4144,956
4145,957
4146,957
4147,958
4148,957
4149,955
4150,949
4151,945
4152,938
4153,936
4154,934
4155,934
4156,929
4157,928
4158,922
4159,914
4160,909
4161,915
4162,926
4163,949
4164,974
4165,1000
4166,1036
4167,1081
4168,1129
4169,1172
4170,1196
4171,1202
4172,1170
4173,1109
4174,1027
4175,967
4176,937
4177,934
4178,937
4179,947
4180,948
4181,950
4182,950
4183,950
4184,952
4185,952
4186,950
4187,947
4188,951
4189,952
4190,951
4191,951
4192,949
4193,947
4194,952
4195,951
4196,953
4197,949
4198,948
4199,949
4200,953
4201,953
4202,952
4203,951
4204,948
4205,950
4206,953
4207,954
4208,953
4209,951
4210,948
4211,951
4212,953
4213,953
4214,951
4215,947
4216,946
4217,949
4218,953
4219,951
4220,952
4221,953
4222,951
4223,951
4224,953
4225,955
4226,955
4227,951
4228,952
4229,949
4230,953
4231,952
4232,951
4233,951
4234,950
4235,952
4236,953
4237,952
4238,951
4239,947
4240,948
4241,951
4242,953
4243,957
4244,952
4245,952
4246,947
4247,948
4248,949
4249,952
4250,952
4251,951
4252,949
4253,951
4254,953
4255,952
4256,954
4257,952
4258,950
4259,950
4260,951
4261,950
4262,948
4263,946
4264,947
4265,948
4266,950
4267,950
4268,951
4269,951
4270,946
4271,949
4272,950
4273,953
4274,951
4275,952
4276,950
4277,954
4278,956
4279,959
4280,960
4281,961
4282,959
4283,962
4284,965
4285,967
4286,966
4287,966
4288,969
4289,970
4290,971
4291,972
4292,972
4293,969
4294,969
4295,967
4296,972
4297,972
4298,971
4299,970
4300,968
4301,969
4302,973
4303,973
4304,975
4305,973
4306,972
4307,973
4308,973
4309,972
4310,971
4311,968
4312,965
4313,966
4314,969
4315,968
4316,968
4317,968
4318,967
4319,967
4320,968
4321,970
4322,967
4323,964
4324,962
4325,964
4326,966
4327,968
4328,964
4329,966
4330,962
4331,964
4332,965
4333,966
4334,967
4335,965
4336,959
4337,961
4338,962
4339,963
4340,964
4341,961
4342,958
4343,960
4344,960
4345,961
4346,960
4347,959
4348,957
4349,958
4350,959
4351,962
4352,961
4353,961
4354,957
4355,960
4356,962
4357,961
4358,962
4359,960
4360,957
4361,959
4362,959
4363,961
4364,962
4365,960
4366,958
4367,960
4368,960
4369,962
4370,958
4371,958
4372,955
4373,956
4374,958
4375,960
4376,961
4377,957
4378,957
4379,958
4380,962
4381,962
4382,961
4383,958
4384,960
4385,961
4386,964
4387,967
4388,968
4389,971
4390,972
4391,971
4392,972
4393,973
4394,972
4395,974
4396,973
4397,976
4398,978
4399,983
4400,982
4401,979
4402,977
4403,979
4404,979
4405,978
4406,979
4407,976
4408,976
4409,978
4410,977
4411,974
4412,974
4413,973
4414,977
4415,980
4416,983
4417,981
4418,976
4419,971
4420,968
4421,968
4422,970
4423,970
4424,966
4425,960
4426,957
4427,956
4428,958
4429,958
4430,957
4431,954
4432,952
4433,954
4434,954
4435,955
4436,954
4437,953
4438,951
4439,952
4440,953
4441,954
4442,956
4443,952
4444,950
4445,950
4446,953
4447,955
4448,954
4449,950
4450,947
4451,942
4452,936
4453,932
4454,926
4455,916
4456,911
4457,914
4458,927
4459,951
4460,973
4461,999
4462,1042
4463,1096
4464,1144
4465,1174
4466,1183
4467,1164
4468,1112
4469,1043
4470,987
4471,950
4472,930
4473,926
4474,930
4475,936
4476,939
4477,942
4478,942
4479,942
4480,940
4481,944
4482,945
4483,943
4484,942
4485,943
4486,940
4487,945
4488,945
4489,946
4490,945
4491,945
4492,942
4493,944
4494,944
4495,942
4496,944
4497,943
4498,942
4499,942
4500,944
4501,946
4502,946
4503,944
4504,944
4505,945
4506,946
4507,947
4508,946
4509,942
4510,942
4511,942
4512,941
4513,942
4514,943
4515,940
4516,940
4517,940
4518,941
4519,942
4520,941
4521,939
4522,939
4523,940
4524,939
4525,940
4526,942
4527,942
4528,941
4529,942
4530,942
4531,944
4532,943
4533,943
4534,939
4535,940
4536,942
4537,944
4538,943
4539,941
4540,940
4541,942
4542,942
4543,944
4544,942
4545,941
4546,940
4547,942
4548,944
4549,946
4550,944
4551,941
4552,940
4553,941
4554,941
4555,944
4556,941
4557,938
4558,934
4559,936
4560,936
4561,937
4562,937
4563,936
4564,934
4565,937
4566,936
4567,938
4568,936
4569,935
4570,935
4571,936
4572,937
4573,940
4574,941
4575,942
4576,943
4577,948
4578,949
4579,950
4580,950
4581,950
4582,952
4583,953
4584,959
4585,963
4586,962
4587,960
4588,959
4589,959
4590,961
4591,964
4592,963
4593,960
4594,958
4595,958
4596,962
4597,962
4598,962
4599,963
4600,962
4601,960
4602,963
4603,964
4604,964
4605,963
4606,960
4607,960
4608,961
4609,961
4610,962
4611,958
4612,957
4613,957
4614,960
4615,961
4616,961
4617,959
4618,958
4619,957
4620,960
4621,964
4622,964
4623,960
4624,960
4625,958
4626,960
4627,960
4628,959
4629,956
4630,953
4631,955
4632,954
4633,955
4634,955
4635,952
4636,952
4637,955
4638,956
4639,956
4640,953
4641,954
4642,954
4643,953
4644,956
4645,957
4646,956
4647,954
4648,953
4649,953
4650,953
4651,955
4652,955
4653,954
4654,952
4655,951
4656,951
4657,954
4658,954
4659,952
4660,950
4661,952
4662,954
4663,957
4664,954
4665,954
4666,955
4667,956
4668,956
4669,956
4670,956
4671,955
4672,954
4673,952
4674,954
4675,957
4676,955
4677,954
4678,954
4679,953
4680,956
4681,957
4682,958
4683,956
4684,953
4685,953
4686,958
4687,961
4688,961
4689,961
4690,960
4691,964
4692,964
4693,968
4694,971
4695,968
4696,967
4697,971
4698,977
4699,978
4700,978
4701,975
4702,973
4703,974
4704,975
4705,974
4706,973
4707,971
4708,970
4709,966
4710,968
4711,969
4712,972
4713,973
4714,972
4715,969
4716,965
4717,964
4718,963
4719,957
4720,953
4721,954
4722,954
4723,954
4724,953
4725,950
4726,950
4727,952
4728,951
4729,953
4730,951
4731,949
4732,947
4733,948
4734,949
4735,953
4736,950
4737,947
4738,946
4739,946
4740,950
4741,952
4742,950
4743,948
4744,947
4745,948
4746,949
4747,950
4748,948
4749,943
4750,935
4751,931
4752,928
4753,927
4754,919
4755,913
4756,917
4757,934
4758,959
4759,987
4760,1019
4761,1061
4762,1110
4763,1156
4764,1187
4765,1194
4766,1174
4767,1121
4768,1046
4769,982
4770,946
4771,932
4772,927
4773,930
4774,934
4775,939
4776,941
4777,943
4778,941
4779,941
4780,940
4781,944
4782,945
4783,947
4784,945
4785,944
4786,940
4787,942
4788,944
4789,944
4790,943
4791,943
4792,937
4793,940
4794,942
4795,943
4796,941
4797,938
4798,936
4799,937
4800,941
4801,940
4802,938
4803,941
4804,938
4805,939
4806,940
4807,940
4808,941
4809,939
4810,939
4811,940
4812,942
4813,942
4814,942
4815,940
4816,938
4817,940
4818,941
4819,945
4820,943
4821,941
4822,938
4823,940
4824,940
4825,941
4826,940
4827,939
4828,936
4829,938
4830,939
4831,941
4832,940
4833,939
4834,936
4835,938
4836,938
4837,939
4838,940
4839,941
4840,939
4841,938
4842,939
4843,941
4844,943
4845,943
4846,939
4847,941
4848,940
4849,940
4850,940
4851,937
4852,937
4853,936
4854,940
4855,938
4856,934
4857,933
4858,931
4859,931
4860,931
4861,931
4862,931
4863,930
4864,926
4865,927
4866,932
4867,933
4868,932
4869,933
4870,933
4871,936
4872,939
4873,941
4874,944
4875,943
4876,944
4877,947
4878,951
4879,951
4880,952
4881,950
4882,949
4883,953
4884,956
4885,958
4886,958
4887,958
4888,956
4889,957
4890,960
4891,963
4892,961
4893,960
4894,960
4895,960
4896,961
4897,962
4898,962
4899,961
4900,958
4901,960
4902,960
4903,962
4904,960
4905,958
4906,956
4907,958
4908,959
4909,959
4910,960
4911,956
4912,954
4913,956
4914,960
4915,961
4916,959
4917,956
4918,955
4919,955
4920,956
4921,958
4922,957
4923,955
4924,952
4925,953
4926,956
4927,958
4928,957
4929,955
4930,951
4931,950
4932,954
4933,956
4934,957
4935,952
4936,953
4937,956
4938,957
4939,957
4940,960
4941,957
4942,953
4943,954
4944,955
4945,956
4946,957
4947,954
4948,950
4949,952
4950,953
4951,954
4952,955
4953,951
4954,952
4955,952
4956,954
4957,955
4958,953
4959,953
4960,951
4961,952
4962,955
4963,955
4964,954
4965,953
4966,952
4967,953
4968,954
4969,957
4970,957
4971,953
4972,955
4973,956
4974,958
4975,956
4976,955
4977,954
4978,953
4979,954
4980,957
4981,958
4982,958
4983,958
4984,958
4985,963
4986,967
4987,969
4988,968
4989,967
4990,966
4991,969
4992,972
4993,975
4994,976
4995,976
4996,976
4997,977
4998,979
4999,980
5000,978
5001,976
5002,973
5003,973
5004,976
5005,976
5006,974
5007,970
5008,970
5009,976
5010,978
5011,979
5012,971
5013,965
5014,963
5015,959
5016,961
5017,959
5018,958
5019,955
5020,952
5021,951
5022,953
5023,955
5024,956
5025,957
5026,952
5027,953
5028,955
5029,957
5030,953
5031,954
5032,949
5033,949
5034,951
5035,951
5036,954
5037,950
5038,948
5039,951
5040,950
5041,953
5042,950
5043,948
5044,947
5045,947
5046,944
5047,938
5048,931
5049,927
5050,920
5051,913
5052,919
5053,937
5054,963
5055,993
5056,1026
5057,1076
5058,1131
5059,1176
5060,1202
5061,1205
5062,1165
5063,1096
5064,1018
5065,960
5066,933
5067,929
5068,936
5069,945
5070,948
5071,948
5072,947
5073,945
5074,944
5075,943
5076,945
5077,942
5078,946
5079,945
5080,943
5081,943
5082,945
5083,947
5084,947
5085,943
5086,943
5087,944
5088,947
5089,948
5090,947
5091,943
5092,942
5093,944
5094,945
5095,947
5096,945
5097,942
5098,943
5099,943
5100,945
5101,946
5102,945
5103,945
5104,943
5105,942
5106,944
5107,947
5108,945
5109,944
5110,945
5111,947
5112,947
5113,949
5114,949
5115,948
5116,945
5117,947
5118,946
5119,947
5120,948
5121,946
5122,944
5123,944
5124,946
5125,951
5126,949
5127,947
5128,944
5129,944
5130,946
5131,948
5132,949
5133,947
5134,945
5135,948
5136,950
5137,951
5138,951
5139,949
5140,947
5141,949
5142,949
5143,951
5144,950
5145,949
5146,944
5147,945
5148,943
5149,950
5150,947
5151,944
5152,942
5153,944
5154,945
5155,949
5156,948
5157,947
5158,943
5159,947
5160,949
5161,950
5162,951
5163,951
5164,954
5165,953
5166,960
5167,962
5168,962
5169,963
5170,962
5171,966
5172,968
5173,968
5174,970
5175,968
5176,967
5177,968
5178,967
5179,971
5180,970
5181,969
5182,966
5183,966
5184,969
5185,969
5186,970
5187,969
5188,966
5189,967
5190,967
5191,972
5192,972
5193,969
5194,967
5195,969
5196,971
5197,970
5198,968
5199,966
5200,965
5201,964
5202,968
5203,968
5204,969
5205,966
5206,964
5207,963
5208,967
5209,967
5210,967
5211,965
5212,964
5213,964
5214,965
5215,968
5216,965
5217,966
5218,963
5219,963
5220,964
5221,967
5222,967
5223,962
5224,961
5225,963
5226,963
5227,965
5228,964
5229,960
5230,957
5231,960
5232,960
5233,962
5234,961
5235,962
5236,958
5237,960
5238,962
5239,963
5240,963
5241,961
5242,961
5243,961
5244,963
5245,963
5246,964
5247,962
5248,962
5249,962
5250,962
5251,965
5252,964
5253,959
5254,959
5255,958
5256,960
5257,962
5258,963
5259,961
5260,958
5261,960
5262,962
5263,963
5264,964
5265,965
5266,960
5267,962
5268,964
5269,969
5270,970
5271,972
5272,974
5273,977
5274,978
5275,979
5276,978
5277,978
5278,976
5279,978
5280,979
5281,983
5282,983
5283,984
5284,982
5285,985
5286,984
5287,986
5288,984
5289,982
5290,979
5291,979
5292,980
5293,980
5294,980
5295,978
5296,974
5297,975
5298,978
5299,983
5300,987
5301,985
5302,979
5303,974
5304,973
5305,971
5306,969
5307,963
5308,960
5309,959
5310,959
5311,958
5312,958
5313,959
5314,957
5315,956
5316,957
5317,960
5318,957
5319,955
5320,953
5321,954
5322,953
5323,954
5324,955
5325,956
5326,953
5327,954
5328,956
5329,956
5330,956
5331,953
5332,944
5333,937
5334,933
5335,930
5336,924
5337,916
5338,915
5339,931
5340,953
5341,982
5342,1017
5343,1061
5344,1111
5345,1159
5346,1188
5347,1189
5348,1152
5349,1088
5350,1010
5351,956
5352,935
5353,935
5354,942
5355,948
5356,949
5357,949
5358,950
5359,951
5360,952
5361,950
5362,949
5363,950
5364,952
5365,954
5366,953
5367,951
5368,948
5369,948
5370,950
5371,951
5372,951
5373,948
5374,947
5375,946
5376,948
5377,949
5378,949
5379,948
5380,946
5381,948
5382,949
5383,950
5384,951
5385,949
5386,947
5387,951
5388,952
5389,954
5390,953
5391,953
5392,950
5393,951
5394,954
5395,952
5396,951
5397,951
5398,949
5399,949
5400,953
5401,953
5402,950
5403,949
5404,948
5405,947
5406,950
5407,950
5408,952
5409,950
5410,949
5411,951
5412,953
5413,955
5414,952
5415,953
5416,951
5417,952
5418,955
5419,957
5420,957
5421,953
5422,953
5423,954
5424,956
5425,954
5426,954
5427,953
5428,951
5429,952
5430,951
5431,951
5432,951
5433,950
5434,949
5435,948
5436,951
5437,954
5438,952
5439,951
5440,948
5441,949
5442,950
5443,952
5444,951
5445,949
5446,948
5447,949
5448,952
5449,953
5450,953
5451,953
5452,954
5453,954
5454,956
5455,958
5456,959
5457,957
5458,957
5459,958
5460,962
5461,964
5462,965
5463,963
5464,962
5465,967
5466,967
5467,971
5468,970
5469,967
5470,966
5471,969
5472,970
5473,973
5474,971
5475,971
5476,969
5477,970
5478,972
5479,974
5480,972
5481,970
5482,968
5483,966
5484,966
5485,968
5486,968
5487,966
5488,963
5489,964
5490,964
5491,965
5492,964
5493,966
5494,964
5495,962
5496,962
5497,965
5498,965
5499,964
5500,960
5501,961
5502,961
5503,964
5504,962
5505,963
5506,961
5507,963
5508,963
5509,963
5510,964
5511,963
5512,962
5513,961
5514,961
5515,961
5516,960
5517,957
5518,955
5519,957
5520,962
5521,959
5522,960
5523,958
5524,959
5525,959
5526,960
5527,960
5528,961
5529,959
5530,955
5531,957
5532,959
5533,959
5534,958
5535,957
5536,956
5537,957
5538,959
5539,960
5540,961
5541,957
5542,955
5543,957
5544,959
5545,959
5546,960
5547,959
5548,957
5549,960
5550,960
5551,962
5552,962
5553,960
5554,958
5555,956
5556,959
5557,963
5558,963
5559,966
5560,966
5561,970
5562,971
5563,971
5564,972
5565,972
5566,970
5567,969
5568,972
5569,975
5570,977
5571,978
5572,975
5573,976
5574,978
5575,976
5576,979
5577,976
5578,975
5579,976
5580,980
5581,980
5582,978
5583,975
5584,973
5585,976
5586,981
5587,979
5588,973
5589,967
5590,962
5591,962
5592,958
5593,957
5594,954
5595,954
5596,952
5597,953
5598,956
5599,956
5600,957
5601,954
5602,952
5603,952
5604,955
5605,955
5606,954
5607,954
5608,952
5609,954
5610,954
5611,955
5612,953
5613,953
5614,950
5615,949
5616,946
5617,939
5618,933
5619,929
5620,924
5621,916
5622,910
5623,922
5624,941
5625,957
5626,972
5627,994
5628,1023
5629,1065
5630,1118
5631,1160
5632,1189
5633,1209
5634,1218
5635,1201
5636,1162
5637,1107
5638,1045
5639,994
5640,955
5641,937
5642,931
5643,933
5644,939
5645,941
5646,945
5647,949
5648,950
5649,945
5650,944
5651,944
5652,942
5653,944
5654,943
5655,944
5656,943
5657,945
5658,946
5659,948
5660,947
5661,943
5662,940
5663,943
5664,944
5665,946
5666,948
5667,945
5668,945
5669,944
5670,946
5671,942
5672,943
5673,942
5674,942
5675,945
5676,947
5677,945
5678,943
5679,940
5680,937
5681,941
5682,943
5683,942
5684,944
5685,942
5686,941
5687,942
5688,944
5689,943
5690,946
5691,946
5692,944
5693,946
5694,946
5695,946
5696,945
5697,940
5698,940
5699,941
5700,942
5701,945
5702,945
5703,944
5704,941
5705,941
5706,944
5707,944
5708,947
5709,946
5710,942
5711,945
5712,946
5713,948
5714,949
5715,946
5716,943
5717,940
5718,941
5719,941
5720,941
5721,937
5722,931
5723,933
5724,931
5725,932
5726,935
5727,933
5728,931
5729,929
5730,933
5731,932
5732,934
5733,933
5734,930
5735,933
5736,936
5737,940
5738,941
5739,940
5740,942
5741,942
5742,950
5743,952
5744,954
5745,954
5746,955
5747,957
5748,960
5749,964
5750,960
5751,961
5752,956
5753,959
5754,964
5755,964
5756,964
5757,962
5758,958
5759,962
5760,963
5761,964
5762,963
5763,961
5764,958
5765,962
5766,963
5767,962
5768,963
5769,962
5770,962
5771,962
5772,964
5773,963
5774,962
5775,962
5776,960
5777,961
5778,958
5779,961
5780,960
5781,956
5782,956
5783,957
5784,958
5785,960
5786,960
5787,959
5788,954
5789,956
5790,957
5791,957
5792,955
5793,954
5794,952
5795,952
5796,955
5797,957
5798,957
5799,957
5800,955
5801,957
5802,957
5803,958
5804,957
5805,957
5806,954
5807,955
5808,953
5809,955
5810,955
5811,953
5812,951
5813,952
5814,953
5815,955
5816,955
5817,955
5818,952
5819,955
5820,956
5821,957
5822,956
5823,955
5824,950
5825,950
5826,952
5827,956
5828,954
5829,951
5830,953
5831,954
5832,956
5833,956
5834,953
5835,953
5836,954
5837,954
5838,957
5839,956
5840,956
5841,958
5842,954
5843,961
5844,964
5845,966
5846,969
5847,968
5848,967
5849,969
5850,970
5851,973
5852,976
5853,974
5854,973
5855,976
5856,979
5857,979
5858,976
5859,973
5860,972
5861,969
5862,972
5863,975
5864,973
5865,971
5866,968
5867,970
5868,974
5869,977
5870,978
5871,975
5872,970
5873,968
5874,968
5875,966
5876,961
5877,957
5878,953
5879,953
5880,953
5881,952
5882,952
5883,949
5884,948
5885,952
5886,953
5887,954
5888,955
5889,950
5890,950
5891,953
5892,953
5893,954
5894,955
5895,953
5896,953
5897,952
5898,953
5899,953
5900,953
5901,952
5902,949
5903,950
5904,946
5905,939
5906,931
5907,926
5908,919
5909,912
5910,912
5911,925
5912,952
5913,980
5914,1015
5915,1062
5916,1119
5917,1169
5918,1203
5919,1203
5920,1166
5921,1094
5922,1013
5923,954
5924,928
5925,926
5926,931
5927,941
5928,943
5929,945
5930,943
5931,940
5932,945
5933,941
5934,944
5935,946
5936,947
5937,945
5938,943
5939,945
5940,944
5941,946
5942,946
5943,944
5944,941
5945,943
5946,946
5947,948
5948,948
5949,943
5950,946
5951,944
5952,946
5953,948
5954,948
5955,943
5956,944
5957,942
5958,944
5959,945
5960,944
5961,944
5962,943
5963,946
5964,948
5965,947
5966,947
5967,946
5968,943
5969,944
5970,944
5971,946
5972,946
5973,942
5974,942
5975,943
5976,944
5977,942
5978,943
5979,942
5980,941
5981,942
5982,943
5983,945
5984,943
5985,944
5986,944
5987,945
5988,943
5989,948
5990,947
5991,946
5992,942
5993,945
5994,946
5995,948
5996,947
5997,943
5998,943
5999,943
6000,944
6001,942
6002,942
6003,941
6004,937
6005,938
6006,941
6007,940
6008,940
6009,936
6010,936
6011,937
6012,937
6013,937
6014,938
6015,935
6016,935
6017,940
6018,939
6019,942
6020,943
6021,944
6022,942
6023,948
6024,950
6025,954
6026,956
6027,953
6028,955
6029,956
6030,961
6031,960
6032,964
6033,964
6034,961
6035,963
6036,964
6037,968
6038,966
6039,966
6040,964
6041,965
6042,965
6043,968
6044,967
6045,966
6046,965
6047,967
6048,968
6049,969
6050,971
6051,968
6052,965
6053,968
6054,968
6055,969
6056,966
6057,965
6058,962
6059,966
6060,966
6061,969
6062,970
6063,965
6064,961
6065,962
6066,964
6067,965
6068,966
6069,964
6070,961
6071,963
6072,964
6073,966
6074,962
6075,961
6076,958
6077,962
6078,963
6079,965
6080,965
6081,963
6082,959
6083,961
6084,961
6085,962
6086,964
6087,961
6088,957
6089,959
6090,959
6091,961
6092,962
6093,960
6094,957
6095,959
6096,962
6097,963
6098,963
6099,960
6100,959
6101,961
6102,962
6103,964
6104,961
6105,959
6106,960
6107,960
6108,960
6109,962
6110,962
6111,962
6112,961
6113,963
6114,967
6115,965
6116,963
6117,962
6118,961
6119,964
6120,961
6121,963
6122,963
6123,959
6124,959
6125,961
6126,964
6127,965
6128,962
6129,961
6130,960
6131,961
6132,962
6133,965
6134,967
6135,970
6136,974
6137,975
6138,978
6139,980
6140,979
6141,977
6142,978
6143,980
6144,983
6145,986
6146,986
6147,986
6148,983
6149,983
6150,983
6151,982
6152,981
6153,979
6154,978
6155,979
6156,980
6157,980
6158,976
6159,976
6160,978
6161,983
6162,985
6163,985
6164,980
6165,975
6166,969
6167,972
6168,969
6169,967
6170,964
6171,964
6172,962
6173,962
6174,960
6175,960
6176,959
6177,957
6178,955
6179,957
6180,957
6181,958
6182,957
6183,955
6184,952
6185,955
6186,957
6187,955
6188,955
6189,953
6190,952
6191,953
6192,956
6193,956
6194,954
6195,954
6196,953
6197,953
6198,953
6199,950
6200,939
6201,931
6202,928
6203,924
6204,918
6205,917
6206,927
6207,945
6208,973
6209,1005
6210,1043
6211,1094
6212,1150
6213,1193
6214,1215
6215,1219
6216,1189
6217,1120
6218,1035
6219,970
6220,933
6221,927
6222,936
6223,943
6224,949
6225,949
6226,946
6227,948
6228,952
6229,953
6230,955
6231,951
6232,949
6233,950
6234,950
6235,953
6236,950
6237,949
6238,948
6239,947
6240,948
6241,948
6242,948
6243,947
6244,945
6245,945
6246,946
6247,947
6248,948
6249,948
6250,945
6251,946
6252,948
6253,950
6254,949
6255,947
6256,948
6257,949
6258,951
6259,952
6260,951
6261,951
6262,947
6263,950
6264,951
6265,953
6266,947
6267,945
6268,945
6269,947
6270,950
6271,948
6272,950
6273,949
6274,946
6275,947
6276,948
6277,950
6278,950
6279,947
6280,947
6281,948
6282,947
6283,950
6284,949
6285,949
6286,948
6287,948
6288,953
6289,952
6290,951
6291,950
6292,948
6293,950
6294,949
6295,952
6296,950
6297,948
6298,947
6299,949
6300,949
6301,950
6302,950
6303,947
6304,944
6305,945
6306,947
6307,945
6308,948
6309,944
6310,944
6311,944
6312,946
6313,946
6314,947
6315,944
6316,944
6317,947
6318,948
6319,948
6320,947
6321,947
6322,943
6323,945
6324,948
6325,950
6326,950
6327,948
6328,951
6329,953
6330,957
6331,959
6332,960
6333,960
6334,958
6335,961
6336,964
6337,965
6338,967
6339,965
6340,966
6341,967
6342,970
6343,972
6344,971
6345,969
6346,968
6347,969
6348,970
6349,970
6350,972
6351,970
6352,968
6353,967
6354,969
6355,971
6356,970
6357,967
6358,967
6359,967
6360,969
6361,968
6362,969
6363,967
6364,965
6365,965
6366,967
6367,968
6368,970
6369,967
6370,969
6371,966
6372,967
6373,968
6374,966
6375,964
6376,962
6377,962
6378,962
6379,964
6380,964
6381,961
6382,959
6383,961
6384,963
6385,962
6386,962
6387,961
6388,958
6389,959
6390,960
6391,960
6392,961
6393,959
6394,958
6395,957
6396,959
6397,960
6398,960
6399,961
6400,960
6401,962
6402,962
6403,964
6404,963
6405,960
6406,956
6407,957
6408,958
6409,960
6410,958
6411,958
6412,957
6413,956
6414,957
6415,959
6416,956
6417,955
6418,956
6419,956
6420,959
6421,956
6422,957
6423,956
6424,954
6425,956
6426,958
6427,958
6428,959
6429,957
6430,956
6431,957
6432,961
6433,961
6434,962
6435,960
6436,958
6437,960
6438,963
6439,962
6440,963
6441,965
6442,960
6443,963
6444,966
6445,967
6446,967
6447,967
6448,967
6449,971
6450,974
6451,974
6452,974
6453,974
6454,974
6455,974
6456,978
6457,981
6458,979
6459,979
6460,978
6461,978
6462,979
6463,981
6464,981
6465,978
6466,974
6467,976
6468,978
6469,978
6470,976
6471,974
6472,973
6473,980
6474,984
6475,984
6476,979
6477,971
6478,966
6479,966
6480,964
6481,962
6482,959
6483,957
6484,956
6485,954
6486,956
6487,956
6488,955
6489,958
6490,954
6491,955
6492,955
6493,956
6494,954
6495,953
6496,953
6497,953
6498,955
6499,956
6500,956
6501,953
6502,952
6503,952
6504,953
6505,955
6506,955
6507,952
6508,950
6509,949
6510,950
6511,948
6512,940
6513,931
6514,927
6515,921
6516,915
6517,909
6518,915
6519,934
6520,959
6521,985
6522,1015
6523,1057
6524,1109
6525,1155
6526,1186
6527,1199
6528,1187
6529,1142
6530,1068
6531,994
6532,948
6533,930
6534,931
6535,939
6536,947
6537,949
6538,945
6539,947
6540,949
6541,953
6542,950
6543,952
6544,951
6545,950
6546,950
6547,952
6548,951
6549,949
6550,948
6551,950
6552,950
6553,950
6554,948
6555,947
6556,945
6557,946
6558,948
6559,949
6560,949
6561,945
6562,944
6563,945
6564,950
6565,950
6566,950
6567,951
6568,946
6569,947
6570,949
6571,952
6572,948
6573,946
6574,946
6575,947
6576,949
6577,949
6578,949
6579,948
6580,946
6581,948
6582,951
6583,948
6584,948
6585,947
6586,946
6587,946
6588,948
6589,948
6590,947
6591,945
6592,944
6593,947
6594,948
6595,952
6596,950
6597,949
6598,950
6599,947
6600,950
6601,951
6602,952
6603,951
6604,949
6605,948
6606,951
6607,950
6608,952
6609,950
6610,945
6611,947
6612,947
6613,946
6614,946
6615,946
6616,942
6617,946
6618,948
6619,946
6620,948
6621,945
6622,943
6623,943
6624,945
6625,946
6626,946
6627,942
6628,941
6629,946
6630,948
6631,946
6632,947
6633,946
6634,946
6635,948
6636,952
6637,953
6638,955
6639,956
6640,955
6641,958
6642,960
6643,961
6644,964
6645,963
6646,960
6647,964
6648,969
6649,969
6650,969
6651,969
6652,968
6653,967
6654,969
6655,969
6656,968
6657,965
6658,963
6659,963
6660,964
6661,966
6662,967
6663,965
6664,962
6665,964
6666,964
6667,965
6668,964
6669,963
6670,962
6671,961
6672,963
6673,962
6674,962
6675,961
6676,960
6677,963
6678,966
6679,967
6680,965
6681,964
6682,961
6683,962
6684,961
6685,960
6686,960
6687,958
6688,956
6689,960
6690,962
6691,960
6692,960
6693,958
6694,955
6695,956
6696,958
6697,958
6698,960
6699,958
6700,959
6701,959
6702,960
6703,961
6704,960
6705,958
6706,955
6707,960
6708,961
6709,961
6710,960
6711,959
6712,957
6713,956
6714,958
6715,959
6716,961
6717,957
6718,955
6719,956
6720,959
6721,960
6722,958
6723,955
6724,956
6725,958
6726,956
6727,959
6728,961
6729,962
6730,959
6731,961
6732,958
6733,961
6734,960
6735,959
6736,958
6737,958
6738,961
6739,962
6740,963
6741,962
6742,962
6743,964
6744,967
6745,969
6746,970
6747,970
6748,968
6749,971
6750,973
6751,974
6752,975
6753,974
6754,975
6755,979
6756,981
6757,980
6758,980
6759,978
6760,977
6761,976
6762,976
6763,978
6764,979
6765,976
6766,970
6767,974
6768,973
6769,977
6770,979
6771,981
6772,976
6773,972
6774,969
6775,967
6776,961
6777,960
6778,955
6779,954
6780,954
6781,952
6782,951
6783,953
6784,952
6785,952
6786,952
6787,954
6788,955
6789,953
6790,949
6791,951
6792,954
6793,955
6794,956
6795,957
6796,953
6797,951
6798,954
6799,955
6800,955
6801,953
6802,950
6803,950
6804,951
6805,952
6806,947
6807,941
6808,933
6809,931
6810,932
6811,929
6812,925
6813,913
6814,907
6815,914
6816,932
6817,955
6818,983
6819,1016
6820,1062
6821,1115
6822,1160
6823,1192
6824,1200
6825,1169
6826,1104
6827,1024
6828,968
6829,937
6830,922
6831,927
6832,932
6833,938
6834,943
6835,942
6836,942
6837,941
6838,943
6839,941
6840,945
6841,946
6842,945
6843,943
6844,942
6845,942
6846,945
6847,946
6848,944
6849,944
6850,945
6851,944
6852,947
6853,947
6854,945
6855,942
6856,940
6857,942
6858,944
6859,946
6860,942
6861,941
6862,939
6863,939
6864,943
6865,944
6866,939
6867,941
6868,941
6869,942
6870,943
6871,944
6872,942
6873,943
6874,941
6875,942
6876,944
6877,945
6878,944
6879,943
6880,943
6881,941
6882,943
6883,944
6884,943
6885,942
6886,940
6887,941
6888,944
6889,945
6890,944
6891,941
6892,940
6893,942
6894,944
6895,945
6896,944
6897,941
6898,942
6899,941
6900,941
6901,943
6902,942
6903,940
6904,936
6905,938
6906,938
6907,939
6908,937
6909,937
6910,936
6911,934
6912,934
6913,934
6914,931
6915,930
6916,927
6917,931
6918,933
6919,934
6920,934
6921,930
6922,927
6923,932
6924,935
6925,937
6926,939
6927,938
6928,938
6929,941
6930,947
6931,951
6932,949
6933,952
6934,952
6935,954
6936,957
6937,957
6938,959
6939,957
6940,957
6941,957
6942,962
6943,962
6944,961
6945,961
6946,960
6947,961
6948,965
6949,965
6950,964
6951,963
6952,958
6953,959
6954,961
6955,959
6956,960
6957,958
6958,957
6959,957
6960,958
6961,963
6962,959
6963,959
6964,959
6965,959
6966,962
6967,963
6968,961
6969,959
6970,958
6971,959
6972,959
6973,956
6974,956
6975,956
6976,955
6977,956
6978,959
6979,958
6980,960
6981,959
6982,956
6983,956
6984,957
6985,956
6986,954
6987,953
6988,952
6989,954
6990,955
6991,955
6992,952
6993,953
6994,950
6995,951
6996,954
6997,952
6998,954
6999,952
7000,950
7001,952
7002,953
7003,955
7004,955
7005,954
7006,954
7007,955
7008,957
7009,958
7010,956
7011,955
7012,954
7013,955
7014,955
7015,956
7016,956
7017,955
7018,952
7019,954
7020,955
7021,957
7022,955
7023,955
7024,953
7025,955
7026,957
7027,959
7028,960
7029,963
7030,963
7031,964
7032,967
7033,968
7034,971
7035,969
7036,970
7037,975
7038,976
7039,978
7040,977
7041,978
7042,975
7043,975
7044,976
7045,974
7046,973
7047,973
7048,970
7049,971
7050,971
7051,971
7052,973
7053,974
7054,977
7055,978
7056,974
7057,972
7058,968
7059,963
7060,956
7061,958
7062,957
7063,958
7064,955
7065,954
7066,952
7067,952
7068,952
7069,951
7070,951
7071,953
7072,951
7073,952
7074,952
7075,952
7076,953
7077,949
7078,949
7079,951
7080,952
7081,950
7082,952
7083,948
7084,946
7085,947
7086,947
7087,951
7088,949
7089,949
7090,944
7091,945
7092,938
7093,932
7094,928
7095,922
7096,910
7097,907
7098,921
7099,947
7100,976
7101,1007
7102,1049
7103,1105
7104,1159
7105,1197
7106,1211
7107,1192
7108,1135
7109,1052
7110,984
7111,943
7112,927
7113,927
7114,934
7115,947
7116,947
7117,947
7118,946
7119,947
7120,945
7121,946
7122,947
7123,947
7124,946
7125,945
7126,946
7127,946
7128,945
7129,948
7130,947
7131,946
7132,943
7133,944
7134,945
7135,946
7136,946
7137,946
7138,943
7139,949
7140,946
7141,948
7142,946
7143,947
7144,946
7145,947
7146,950
7147,951
7148,951
7149,948
7150,946
7151,946
7152,947
7153,949
7154,948
7155,946
7156,946
7157,945
7158,949
7159,947
7160,947
7161,944
7162,946
7163,947
7164,947
7165,949
7166,948
7167,945
7168,943
7169,947
7170,948
7171,949
7172,948
7173,948
7174,946
7175,946
7176,948
7177,953
7178,953
7179,950
7180,947
7181,949
7182,947
7183,949
7184,946
7185,946
7186,944
7187,944
7188,947
7189,946
7190,946
7191,943
7192,941
7193,943
7194,943
7195,943
7196,942
7197,939
7198,938
7199,940
7200,943
7201,942
7202,942
7203,942
7204,942
7205,944
7206,947
7207,950
7208,949
7209,952
7210,951
7211,953
7212,957
7213,961
7214,961
7215,962
7216,961
7217,965
7218,966
7219,970
7220,967
7221,966
7222,966
7223,968
7224,969
7225,973
7226,970
7227,969
7228,969
7229,968
7230,973
7231,975
7232,972
7233,973
7234,971
7235,972
7236,972
7237,976
7238,974
7239,972
7240,969
7241,971
7242,972
7243,972
7244,967
7245,967
7246,968
7247,967
7248,967
7249,971
7250,968
7251,969
7252,965
7253,965
7254,968
7255,969
7256,968
7257,967
7258,962
7259,963
7260,968
7261,966
7262,967
7263,966
7264,964
7265,962
7266,965
7267,965
7268,966
7269,961
7270,962
7271,962
7272,961
7273,963
7274,962
7275,960
7276,959
7277,962
7278,963
7279,962
7280,963
7281,961
7282,961
7283,963
7284,963
7285,964
7286,964
7287,961
7288,960
7289,963
7290,965
7291,964
7292,963
7293,964
7294,960
7295,962
7296,963
7297,965
7298,964
7299,962
7300,959
7301,961
7302,961
7303,964
7304,964
7305,962
7306,960
7307,961
7308,963
7309,964
7310,964
7311,964
7312,964
7313,967
7314,972
7315,975
7316,976
7317,975
7318,974
7319,976
7320,975
7321,978
7322,980
7323,978
7324,977
7325,978
7326,983
7327,984
7328,985
7329,982
7330,981
7331,983
7332,983
7333,983
7334,982
7335,979
7336,978
7337,979
7338,980
7339,980
7340,981
7341,984
7342,986
7343,986
7344,983
7345,979
7346,974
7347,970
7348,964
7349,963
7350,960
7351,960
7352,959
7353,957
7354,956
7355,957
7356,955
7357,958
7358,958
7359,955
7360,955
7361,954
7362,957
7363,957
7364,957
7365,956
7366,955
7367,956
7368,960
7369,959
7370,959
7371,957
7372,955
7373,954
7374,945
7375,938
7376,932
7377,923
7378,915
7379,909
7380,912
7381,933
7382,958
7383,977
7384,998
7385,1024
7386,1056
7387,1094
7388,1133
7389,1164
7390,1187
7391,1210
7392,1231
7393,1234
7394,1208
7395,1138
7396,1047
7397,975
7398,940
7399,939
7400,946
7401,953
7402,952
7403,951
7404,953
7405,954
7406,952
7407,951
7408,946
7409,947
7410,949
7411,950
7412,950
7413,948
7414,945
7415,947
7416,949
7417,951
7418,950
7419,947
7420,944
7421,947
7422,947
7423,950
7424,949
7425,947
7426,945
7427,946
7428,950
7429,952
7430,952
7431,951
7432,950
7433,950
7434,951
7435,953
7436,952
7437,950
7438,948
7439,948
7440,951
7441,950
7442,951
7443,948
7444,946
7445,948
7446,948
7447,951
7448,951
7449,949
7450,947
7451,947
7452,949
7453,952
7454,953
7455,950
7456,949
7457,950
7458,950
7459,953
7460,951
7461,952
7462,947
7463,947
7464,948
7465,952
7466,951
7467,949
7468,948
7469,950
7470,950
7471,950
7472,952
7473,947
7474,945
7475,948
7476,949
7477,951
7478,949
7479,947
7480,946
7481,949
7482,950
7483,950
7484,950
7485,950
7486,947
7487,948
7488,947
7489,950
7490,950
7491,950
7492,948
7493,950
7494,955
7495,956
7496,959
7497,957
7498,959
7499,963
7500,965
7501,965
7502,964
7503,964
7504,963
7505,965
7506,968
7507,967
7508,969
7509,971
7510,968
7511,969
7512,973
7513,971
7514,972
7515,971
7516,967
7517,967
7518,969
7519,972
7520,971
7521,967
7522,967
7523,966
7524,969
7525,969
7526,971
7527,969
7528,963
7529,966
7530,967
7531,967
7532,969
7533,965
7534,964
7535,968
7536,968
7537,970
7538,968
7539,965
7540,964
7541,962
7542,961
7543,963
7544,963
7545,957
7546,957
7547,960
7548,960
7549,962
7550,960
7551,958
7552,958
7553,958
7554,958
7555,962
7556,961
7557,960
7558,957
7559,958
7560,961
7561,962
7562,961
7563,958
7564,956
7565,957
7566,956
7567,963
7568,960
7569,958
7570,956
7571,957
7572,960
7573,960
7574,958
7575,958
7576,957
7577,959
7578,961
7579,960
7580,961
7581,960
7582,962
7583,962
7584,962
7585,963
7586,964
7587,962
7588,962
7589,964
7590,967
7591,966
7592,969
7593,969
7594,969
7595,970
7596,973
7597,976
7598,975
7599,976
7600,975
7601,975
7602,980
7603,983
7604,986
7605,985
7606,986
7607,984
7608,985
7609,984
7610,982
7611,981
7612,980
7613,982
7614,982
7615,984
7616,982
7617,980
7618,981
7619,980
7620,977
7621,979
7622,979
7623,980
7624,984
7625,983
7626,978
7627,974
7628,972
7629,967
7630,964
7631,961
7632,958
7633,959
7634,957
7635,956
7636,955
7637,958
7638,960
7639,960
7640,959
7641,957
7642,957
7643,957
7644,958
7645,958
7646,957
7647,954
7648,953
7649,954
7650,955
7651,956
7652,954
7653,952
7654,946
7655,944
7656,937
7657,931
7658,928
7659,921
7660,910
7661,908
7662,920
7663,944
7664,974
7665,1005
7666,1044
7667,1103
7668,1156
7669,1190
7670,1200
7671,1176
7672,1116
7673,1038
7674,976
7675,939
7676,927
7677,928
7678,938
7679,944
7680,945
7681,944
7682,944
7683,945
7684,946
7685,949
7686,951
7687,950
7688,947
7689,945
7690,943
7691,946
7692,946
7693,947
7694,948
7695,945
7696,944
7697,948
7698,948
7699,949
7700,947
7701,945
7702,943
7703,944
7704,945
7705,945
7706,948
7707,945
7708,946
7709,945
7710,944
7711,946
7712,947
7713,946
7714,944
7715,946
7716,948
7717,948
7718,947
7719,948
7720,947
7721,950
7722,949
7723,950
7724,950
7725,949
7726,947
7727,947
7728,949
7729,947
7730,948
7731,944
7732,943
7733,944
7734,947
7735,948
7736,949
7737,945
7738,943
7739,943
7740,945
7741,946
7742,948
7743,947
7744,945
7745,949
7746,949
7747,948
7748,947
7749,949
7750,947
7751,947
7752,949
7753,948
7754,944
7755,943
7756,941
7757,942
7758,941
7759,944
7760,942
7761,942
7762,941
7763,941
7764,941
7765,941
7766,941
7767,939
7768,935
7769,938
7770,940
7771,941
7772,944
7773,942
7774,943
7775,947
7776,949
7777,954
7778,954
7779,954
7780,953
7781,957
7782,958
7783,963
7784,962
7785,959
7786,959
7787,961
7788,961
7789,962
7790,962
7791,963
7792,961
7793,960
7794,962
7795,963
7796,963
7797,963
7798,962
7799,965
7800,965
7801,966
7802,967
7803,967
7804,963
7805,963
7806,965
7807,966
7808,965
7809,965
7810,963
7811,963
7812,964
7813,964
7814,964
7815,960
7816,960
7817,959
7818,960
7819,960
7820,963
7821,959
7822,960
7823,961
7824,960
7825,962
7826,961
7827,962
7828,961
7829,961
7830,961
7831,963
7832,962
7833,961
7834,959
7835,958
7836,958
7837,959
7838,959
7839,958
7840,954
7841,954
7842,958
7843,959
7844,958
7845,954
7846,952
7847,954
7848,956
7849,958
7850,958
7851,958
7852,954
7853,954
7854,956
7855,959
7856,960
7857,958
7858,957
7859,954
7860,956
7861,955
7862,956
7863,958
7864,957
7865,956
7866,960
7867,959
7868,958
7869,954
7870,954
7871,957
7872,960
7873,962
7874,963
7875,965
7876,965
7877,969
7878,970
7879,973
7880,971
7881,974
7882,974
7883,974
7884,979
7885,980
7886,980
7887,978
7888,974
7889,974
7890,974
7891,977
7892,978
7893,975
7894,976
7895,977
7896,977
7897,978
7898,973
7899,972
7900,969
7901,971
7902,973
7903,978
7904,979
7905,976
7906,970
7907,967
7908,965
7909,963
7910,960
7911,953
7912,951
7913,952
7914,951
7915,953
7916,953
7917,952
7918,951
7919,951
7920,953
7921,955
7922,953
7923,950
7924,947
7925,950
7926,954
7927,954
7928,955
7929,952
7930,950
7931,950
7932,952
7933,955
7934,952
7935,951
7936,947
7937,946
7938,943
7939,938
7940,934
7941,930
7942,921
7943,914
7944,911
7945,923
7946,940
7947,965
7948,998
7949,1040
7950,1096
7951,1148
7952,1191
7953,1208
7954,1190
7955,1133
7956,1056
7957,988
7958,945
7959,926
7960,921
7961,930
7962,939
7963,942
7964,942
7965,941
7966,942
7967,943
7968,945
7969,945
7970,945
7971,943
7972,942
7973,944
7974,943
7975,945
7976,944
7977,942
7978,940
7979,941
7980,941
7981,943
7982,942
7983,938
7984,935
7985,935
7986,939
7987,941
7988,940
7989,940
7990,939
7991,940
7992,939
7993,942
7994,941
7995,937
7996,936
7997,937
7998,941
7999,941
8000,942
8001,942
8002,940
8003,938
8004,937
8005,939
8006,940
8007,940
8008,939
8009,939
8010,939
8011,940
8012,939
8013,939
8014,939
8015,940
8016,941
8017,941
8018,941
8019,940
8020,938
8021,939
8022,940
8023,941
8024,940
8025,940
8026,938
8027,940
8028,940
8029,942
8030,943
8031,939
8032,937
8033,936
8034,940
8035,941
8036,938
8037,936
8038,934
8039,934
8040,935
8041,935
8042,935
8043,931
8044,929
8045,926
8046,928
8047,929
8048,928
8049,927
8050,926
8051,927
8052,929
8053,933
8054,931
8055,932
8056,930
8057,933
8058,934
8059,937
8060,938
8061,938
8062,940
8063,941
8064,946
8065,947
8066,949
8067,949
8068,949
8069,952
8070,955
8071,957
8072,958
8073,955
8074,956
8075,957
8076,958
8077,959
8078,960
8079,958
8080,957
8081,959
8082,960
8083,962
8084,963
8085,959
8086,958
8087,959
8088,960
8089,963
8090,960
8091,960
8092,956
8093,959
8094,959
8095,958
8096,958
8097,955
8098,953
8099,954
8100,958
8101,959
8102,957
8103,957
8104,952
8105,954
8106,955
8107,953
8108,952
8109,954
8110,950
8111,954
8112,953
8113,954
8114,954
8115,954
8116,951
8117,953
8118,952
8119,954
8120,952
8121,951
8122,949
8123,951
8124,949
8125,951
8126,948
8127,948
8128,945
8129,947
8130,949
8131,950
8132,949
8133,949
8134,947
8135,949
8136,949
8137,952
8138,950
8139,949
8140,948
8141,949
8142,951
8143,952
8144,952
8145,951
8146,948
8147,948
8148,949
8149,953
8150,951
8151,950
8152,947
8153,949
8154,952
8155,951
8156,951
8157,948
8158,948
8159,950
8160,952
8161,952
8162,954
8163,952
8164,951
8165,954
8166,955
8167,957
8168,959
8169,960
8170,958
8171,960
8172,964
8173,964
8174,965
8175,963
8176,965
8177,967
8178,970
8179,970
8180,973
8181,971
8182,970
8183,969
8184,971
8185,969
8186,970
8187,967
8188,965
8189,965
8190,967
8191,969
8192,968
8193,964
8194,966
8195,967
8196,973
8197,976
8198,970
8199,964
8200,956
8201,956
8202,954
8203,952
8204,948
8205,946
8206,943
8207,944
8208,947
8209,947
8210,947
8211,943
8212,942
8213,943
8214,946
8215,944
8216,945
8217,941
8218,941
8219,943
8220,945
8221,946
8222,946
8223,943
8224,941
8225,941
8226,944
8227,943
8228,938
8229,928
8230,919
8231,914
8232,910
8233,905
8234,895
8235,896
8236,910
8237,936
8238,957
8239,974
8240,994
8241,1021
8242,1056
8243,1106
8244,1157
8245,1195
8246,1215
8247,1206
8248,1153
8249,1067
8250,985
8251,935
8252,916
8253,922
8254,927
8255,937
8256,935
8257,936
8258,936
8259,936
8260,934
8261,933
8262,933
8263,934
8264,933
8265,932
8266,930
8267,931
8268,934
8269,936
8270,934
8271,935
8272,932
8273,932
8274,936
8275,935
8276,935
8277,934
8278,933
8279,934
8280,933
8281,937
8282,933
8283,934
8284,933
8285,933
8286,935
8287,936
8288,937
8289,937
8290,934
8291,935
8292,938
8293,936
8294,934
8295,934
8296,933
8297,932
8298,936
8299,937
8300,935
8301,933
8302,932
8303,933
8304,936
8305,935
8306,936
8307,934
8308,931
8309,934
8310,933
8311,936
8312,936
8313,934
8314,929
8315,933
8316,934
8317,934
8318,936
8319,936
8320,933
8321,936
8322,936
8323,937
8324,936
8325,935
8326,933
8327,934
8328,936
8329,937
8330,934
8331,935
8332,933
8333,934
8334,935
8335,935
8336,933
8337,930
8338,930
8339,928
8340,931
8341,933
8342,933
8343,931
8344,930
8345,930
8346,933
8347,933
8348,932
8349,934
8350,933
8351,935
8352,937
8353,942
8354,940
8355,940
8356,939
8357,942
8358,946
8359,950
8360,950
8361,949
8362,948
8363,952
8364,954
8365,954
8366,957
8367,956
8368,953
8369,953
8370,956
8371,958
8372,955
8373,954
8374,955
8375,955
8376,958
8377,961
8378,959
8379,956
8380,956
8381,956
8382,956
8383,957
8384,955
8385,954
8386,950
8387,954
8388,955
8389,957
8390,953
8391,951
8392,952
8393,951
8394,952
8395,954
8396,953
8397,953
8398,949
8399,949
8400,950
8401,953
8402,953
8403,949
8404,949
8405,947
8406,951
8407,952
8408,951
8409,946
8410,946
8411,947
8412,948
8413,947
8414,946
8415,946
8416,943
8417,946
8418,945
8419,946
8420,945
8421,942
8422,941
8423,941
8424,943
8425,945
8426,943
8427,941
8428,940
8429,942
8430,940
8431,944
8432,944
8433,943
8434,941
8435,940
8436,944
8437,945
8438,947
8439,943
8440,942
8441,942
8442,943
8443,945
8444,943
8445,942
8446,942
8447,941
8448,941
8449,943
8450,945
8451,943
8452,942
8453,942
8454,944
8455,945
8456,945
8457,945
8458,943
8459,946
8460,950
8461,951
8462,953
8463,953
8464,953
8465,954
8466,956
8467,958
8468,959
8469,956
8470,955
8471,955
8472,959
8473,964
8474,963
8475,963
8476,960
8477,964
8478,961
8479,965
8480,963
8481,960
8482,958
8483,960
8484,964
8485,965
8486,962
8487,959
8488,960
8489,964
8490,968
8491,965
8492,958
8493,951
8494,947
8495,946
8496,945
8497,945
8498,942
8499,940
8500,936
8501,938
8502,940
8503,941
8504,942
8505,938
8506,937
8507,938
8508,938
8509,940
8510,940
8511,936
8512,935
8513,938
8514,938
8515,939
8516,938
8517,938
8518,935
8519,936
8520,933
8521,938
8522,936
8523,933
8524,928
8525,922
8526,915
8527,911
8528,908
8529,897
8530,891
8531,898
8532,922
8533,953
8534,984
8535,1019
8536,1072
8537,1132
8538,1175
8539,1193
8540,1183
8541,1134
8542,1048
8543,967
8544,920
8545,907
8546,912
8547,920
8548,924
8549,930
8550,929
8551,930
8552,932
8553,928
8554,927
8555,927
8556,930
8557,931
8558,929
8559,928
8560,926
8561,927
8562,929
8563,930
8564,929
8565,926
8566,925
8567,925
8568,925
8569,928
8570,926
8571,927
8572,925
8573,926
8574,927
8575,928
8576,929
8577,927
8578,926
8579,927
8580,928
8581,929
8582,927
8583,927
8584,922
8585,925
8586,926
8587,927
8588,929
8589,929
8590,925
8591,929
8592,929
8593,929
8594,930
8595,925
8596,925
8597,925
8598,926
8599,930
8600,927
8601,925
8602,923
8603,925
8604,926
8605,926
8606,928
8607,926
8608,924
8609,925
8610,926
8611,929
8612,928
8613,926
8614,924
8615,928
8616,927
8617,929
8618,928
8619,928
8620,928
8621,930
8622,931
8623,932
8624,929
8625,929
8626,928
8627,926
8628,928
8629,930
8630,928
8631,925
8632,923
8633,923
8634,927
8635,927
8636,927
8637,925
8638,923
8639,923
8640,926
8641,927
8642,924
8643,926
8644,924
8645,928
8646,930
8647,935
8648,934
8649,934
8650,934
8651,939
8652,943
8653,947
8654,947
8655,945
8656,946
8657,947
8658,949
8659,950
8660,949
8661,947
8662,946
8663,946
8664,947
8665,950
8666,950
8667,946
8668,947
8669,947
8670,947
8671,949
8672,949
8673,948
8674,946
8675,950
8676,948
8677,951
8678,950
8679,949
8680,946
8681,948
8682,951
8683,951
8684,950
8685,949
8686,945
8687,946
8688,946
8689,948
8690,946
8691,943
8692,941
8693,941
8694,942
8695,945
8696,945
8697,942
8698,940
8699,942
8700,941
8701,944
8702,940
8703,939
8704,938
8705,938
8706,939
8707,942
8708,942
8709,942
8710,939
8711,939
8712,942
8713,942
8714,940
8715,940
8716,935
8717,934
8718,937
8719,938
8720,938
8721,936
8722,934
8723,935
8724,936
8725,940
8726,940
8727,938
8728,935
8729,935
8730,937
8731,939
8732,939
8733,935
8734,934
8735,935
8736,937
8737,939
8738,940
8739,938
8740,938
8741,938
8742,940
8743,943
8744,941
8745,940
8746,939
8747,939
8748,940
8749,939
8750,940
8751,939
8752,936
8753,936
8754,939
8755,940
8756,940
8757,941
8758,939
8759,944
8760,948
8761,951
8762,950
8763,950
8764,951
8765,953
8766,955
8767,958
8768,960
8769,960
8770,958
8771,959
8772,961
8773,961
8774,961
8775,959
8776,956
8777,955
8778,957
8779,959
8780,957
8781,953
8782,948
8783,952
8784,955
8785,963
8786,965
8787,961
8788,957
8789,951
8790,950
8791,949
8792,947
8793,943
8794,938
8795,938
8796,938
8797,938
8798,937
8799,934
8800,932
8801,932
8802,932
8803,933
8804,934
8805,934
8806,931
8807,930
8808,930
8809,932
8810,929
8811,928
8812,926
8813,928
8814,931
8815,931
8816,928
8817,927
8818,925
8819,925
8820,926
8821,926
8822,919
8823,913
8824,904
8825,902
8826,900
8827,893
8828,888
8829,893
8830,909
8831,935
8832,962
8833,998
8834,1049
8835,1103
8836,1144
8837,1169
8838,1167
8839,1130
8840,1061
8841,985
8842,933
8843,906
8844,901
8845,907
8846,915
8847,917
8848,917
8849,917
8850,919
8851,923
8852,921
8853,923
8854,921
8855,921
8856,926
8857,925
8858,924
8859,926
8860,920
8861,922
8862,920
8863,923
8864,923
8865,923
8866,921
8867,921
8868,924
8869,922
8870,921
8871,919
8872,918
8873,919
8874,917
8875,920
8876,919
8877,920
8878,918
8879,920
8880,920
8881,922
8882,921
8883,922
8884,918
8885,918
8886,920
8887,922
8888,923
8889,919
8890,918
8891,919
8892,922
8893,925
8894,924
8895,922
8896,920
8897,920
8898,921
8899,923
8900,924
8901,922
8902,920
8903,923
8904,921
8905,922
8906,920
8907,923
8908,923
8909,921
8910,919
8911,924
8912,925
8913,925
8914,923
8915,925
8916,926
8917,929
8918,926
8919,925
8920,922
8921,923
8922,924
8923,924
8924,924
8925,923
8926,921
8927,923
8928,923
8929,921
8930,922
8931,919
8932,917
8933,917
8934,916
8935,920
8936,916
8937,916
8938,912
8939,914
8940,916
8941,915
8942,916
8943,915
8944,914
8945,913
8946,918
8947,920
8948,921
8949,924
8950,923
8951,923
8952,927
8953,931
8954,930
8955,932
8956,932
8957,933
8958,937
8959,938
8960,939
8961,938
8962,936
8963,936
8964,937
8965,942
8966,942
8967,941
8968,940
8969,942
8970,944
8971,945
8972,946
8973,943
8974,942
8975,943
8976,946
8977,944
8978,943
8979,941
8980,941
8981,941
8982,942
8983,944
8984,942
8985,942
8986,939
8987,941
8988,945
8989,943
8990,944
8991,941
8992,940
8993,939
8994,942
8995,944
8996,943
8997,940
8998,940
8999,941
9000,942
9001,942
9002,940
9003,939
9004,936
9005,937
9006,938
9007,938
9008,938
9009,938
9010,935
9011,934
9012,937
9013,939
9014,940
9015,939
9016,938
9017,933
9018,934
9019,936
9020,938
9021,936
9022,936
9023,936
9024,938
9025,940
9026,941
9027,939
9028,934
9029,933
9030,934
9031,935
9032,937
9033,937
9034,934
9035,934
9036,935
9037,938
9038,939
9039,934
9040,932
9041,935
9042,936
9043,939
9044,940
9045,935
9046,934
9047,937
9048,939
9049,942
9050,940
9051,936
9052,935
9053,937
9054,938
9055,938
9056,939
9057,938
9058,939
9059,942
9060,942
9061,948
9062,951
9063,950
9064,944
9065,946
9066,950
9067,953
9068,954
9069,952
9070,948
9071,950
9072,953
9073,958
9074,959
9075,959
9076,958
9077,960
9078,960
9079,961
9080,960
9081,956
9082,953
9083,954
9084,956
9085,956
9086,952
9087,950
9088,947
9089,950
9090,956
9091,959
9092,957
9093,948
9094,946
9095,942
9096,940
9097,940
9098,936
9099,934
9100,932
9101,935
9102,933
9103,937
9104,935
9105,934
9106,932
9107,931
9108,932
9109,933
9110,933
9111,931
9112,928
9113,931
9114,933
9115,933
9116,930
9117,930
9118,929
9119,927
9120,930
9121,928
9122,932
9123,928
9124,927
9125,927
9126,925
9127,919
9128,916
9129,910
9130,905
9131,897
9132,890
9133,898
9134,916
9135,941
9136,968
9137,1008
9138,1057
9139,1111
9140,1159
9141,1184
9142,1190
9143,1156
9144,1093
9145,1016
9146,954
9147,918
9148,903
9149,899
9150,906
9151,915
9152,920
9153,922
9154,918
9155,921
9156,924
9157,925
9158,925
9159,923
9160,923
9161,923
9162,925
9163,924
9164,924
9165,924
9166,920
9167,923
9168,925
9169,925
9170,924
9171,922
9172,921
9173,922
9174,924
9175,928
9176,924
9177,923
9178,920
9179,921
9180,923
9181,926
9182,922
9183,923
9184,924
9185,923
9186,926
9187,928
9188,926
9189,927
9190,924
9191,924
9192,926
9193,927
9194,925
9195,923
9196,923
9197,922
9198,924
9199,926
9200,926
9201,924
9202,922
9203,921
9204,925
9205,925
9206,926
9207,921
9208,922
9209,923
9210,925
9211,925
9212,927
9213,926
9214,922
9215,925
9216,927
9217,928
9218,928
9219,925
9220,922
9221,920
9222,922
9223,923
9224,921
9225,920
9226,916
9227,916
9228,920
9229,918
9230,917
9231,916
9232,913
9233,913
9234,916
9235,916
9236,915
9237,916
9238,914
9239,916
9240,918
9241,918
9242,919
9243,919
9244,920
9245,922
9246,925
9247,928
9248,931
9249,930
9250,931
9251,933
9252,936
9253,941
9254,941
9255,942
9256,942
9257,946
9258,946
9259,948
9260,948
9261,946
9262,945
9263,947
9264,948
9265,951
9266,949
9267,947
9268,949
9269,948
9270,950
9271,951
9272,950
9273,948
9274,944
9275,945
9276,946
9277,947
9278,945
9279,944
9280,942
9281,942
9282,944
9283,946
9284,945
9285,945
9286,943
9287,943
9288,945
9289,947
9290,944
9291,942
9292,942
9293,942
9294,944
9295,947
9296,945
9297,945
9298,944
9299,943
9300,946
9301,947
9302,943
9303,941
9304,940
9305,941
9306,942
9307,942
9308,943
9309,940
9310,937
9311,938
9312,938
9313,940
9314,942
9315,939
9316,936
9317,935
9318,941
9319,941
9320,940
9321,940
9322,935
9323,939
9324,942
9325,941
9326,940
9327,942
9328,940
9329,943
9330,944
9331,946
9332,946
9333,945
9334,942
9335,943
9336,945
9337,945
9338,945
9339,943
9340,940
9341,940
9342,943
9343,945
9344,946
9345,942
9346,941
9347,941
9348,942
9349,946
9350,946
9351,944
9352,945
9353,945
9354,949
9355,950
9356,955
9357,954
9358,956
9359,958
9360,960
9361,964
9362,963
9363,960
9364,960
9365,962
9366,967
9367,969
9368,968
9369,966
9370,965
9371,963
9372,964
9373,964
9374,962
9375,961
9376,959
9377,963
9378,963
9379,961
9380,961
9381,962
9382,963
9383,969
9384,973
9385,972
9386,965
9387,959
9388,956
9389,954
9390,954
9391,952
9392,949
9393,948
9394,943
9395,944
9396,943
9397,946
9398,943
9399,941
9400,939
9401,940
9402,941
9403,940
9404,942
9405,939
9406,939
9407,938
9408,942
9409,942
9410,944
9411,940
9412,938
9413,939
9414,941
9415,938
9416,934
9417,926
9418,916
9419,914
9420,910
9421,905
9422,903
9423,913
9424,939
9425,973
9426,1008
9427,1056
9428,1113
9429,1165
9430,1201
9431,1225
9432,1233
9433,1219
9434,1172
9435,1094
9436,1010
9437,943
9438,914
9439,912
9440,917
9441,924
9442,933
9443,933
9444,935
9445,935
9446,936
9447,933
9448,931
9449,931
9450,931
9451,931
9452,931
9453,928
9454,927
9455,928
9456,930
9457,930
9458,932
9459,932
9460,929
9461,929
9462,930
9463,933
9464,933
9465,932
9466,932
9467,932
9468,933
9469,934
9470,934
9471,933
9472,929
9473,931
9474,931
9475,934
9476,934
9477,933
9478,928
9479,930
9480,935
9481,937
9482,936
9483,934
9484,932
9485,932
9486,935
9487,938
9488,939
9489,934
9490,932
9491,933
9492,934
9493,936
9494,935
9495,936
9496,934
9497,935
9498,936
9499,937
9500,934
9501,934
9502,933
9503,933
9504,932
9505,934
9506,937
9507,931
9508,931
9509,934
9510,937
9511,938
9512,937
9513,934
9514,931
9515,931
9516,932
9517,933
9518,933
9519,932
9520,930
9521,930
9522,932
9523,934
9524,933
9525,932
9526,929
9527,932
9528,932
9529,934
9530,934
9531,935
9532,935
9533,937
9534,939
9535,940
9536,941
9537,945
9538,943
9539,947
9540,947
9541,950
9542,952
9543,952
9544,952
9545,953
9546,953
9547,957
9548,957
9549,955
9550,956
9551,957
9552,960
9553,960
9554,959
9555,959
9556,957
9557,958
9558,959
9559,959
9560,957
9561,954
9562,952
9563,951
9564,955
9565,957
9566,954
9567,954
9568,953
9569,952
9570,955
9571,958
9572,958
9573,955
9574,953
9575,953
9576,956
9577,955
9578,954
9579,952
9580,950
9581,949
9582,952
9583,951
9584,952
9585,951
9586,948
9587,949
9588,951
9589,951
9590,951
9591,949
9592,946
9593,947
9594,949
9595,950
9596,950
9597,949
9598,946
9599,948
9600,950
9601,955
9602,952
9603,950
9604,947
9605,949
9606,949
9607,950
9608,950
9609,945
9610,944
9611,947
9612,946
9613,948
9614,947
9615,948
9616,945
9617,946
9618,947
9619,949
9620,949
9621,948
9622,946
9623,948
9624,949
9625,949
9626,951
9627,950
9628,950
9629,953
9630,952
9631,954
9632,957
9633,954
9634,954
9635,956
9636,960
9637,965
9638,965
9639,963
9640,961
9641,964
9642,967
9643,967
9644,967
9645,967
9646,970
9647,969
9648,972
9649,975
9650,974
9651,972
9652,970
9653,968
9654,968
9655,971
9656,971
9657,971
9658,969
9659,970
9660,973
9661,976
9662,978
9663,976
9664,969
9665,962
9666,963
9667,960
9668,958
9669,954
9670,950
9671,949
9672,951
9673,950
9674,950
9675,950
9676,948
9677,947
9678,948
9679,950
9680,952
9681,950
9682,947
9683,949
9684,949
9685,948
9686,948
9687,945
9688,944
9689,944
9690,946
9691,946
9692,946
9693,945
9694,941
9695,939
9696,937
9697,929
9698,924
9699,919
9700,910
9701,903
9702,905
9703,924
9704,952
9705,978
9706,1013
9707,1064
9708,1124
9709,1170
9710,1195
9711,1191
9712,1148
9713,1069
9714,992
9715,941
9716,919
9717,921
9718,930
9719,937
9720,941
9721,941
9722,942
9723,943
9724,941
9725,940
9726,941
9727,944
9728,941
9729,940
9730,938
9731,940
9732,943
9733,942
9734,944
9735,941
9736,938
9737,940
9738,939
9739,943
9740,942
9741,940
9742,937
9743,938
9744,939
9745,941
9746,940
9747,939
9748,937
9749,939
9750,940
9751,942
9752,942
9753,940
9754,939
9755,941
9756,943
9757,944
9758,943
9759,944
9760,942
9761,940
9762,943
9763,945
9764,941
9765,942
9766,938
9767,939
9768,941
9769,941
9770,942
9771,940
9772,938
9773,939
9774,942
9775,942
9776,944
9777,943
9778,941
9779,940
9780,943
9781,944
9782,946
9783,944
9784,944
9785,943
9786,945
9787,946
9788,943
9789,944
9790,938
9791,938
9792,940
9793,941
9794,943
9795,939
9796,937
9797,938
9798,939
9799,941
9800,939
9801,939
9802,936
9803,937
9804,941
9805,941
9806,939
9807,938
9808,937
9809,942
9810,945
9811,947
9812,949
9813,948
9814,947
9815,948
9816,951
9817,955
9818,955
9819,952
9820,951
9821,955
9822,956
9823,959
9824,959
9825,958
9826,956
9827,957
9828,959
9829,962
9830,963
9831,962
9832,957
9833,958
9834,960
9835,961
9836,962
9837,962
9838,961
9839,963
9840,963
9841,965
9842,964
9843,961
9844,958
9845,958
9846,961
9847,963
9848,959
9849,957
9850,957
9851,956
9852,957
9853,960
9854,956
9855,953
9856,954
9857,952
9858,954
9859,956
9860,957
9861,955
9862,952
9863,954
9864,954
9865,955
9866,955
9867,953
9868,951
9869,952
9870,952
9871,953
9872,952
9873,950
9874,949
9875,947
9876,949
9877,950
9878,948
9879,947
9880,947
9881,948
9882,948
9883,950
9884,950
9885,949
9886,950
9887,950
9888,952
9889,952
9890,953
9891,948
9892,944
9893,945
9894,946
9895,948
9896,948
9897,946
9898,947
9899,950
9900,949
9901,951
9902,952
9903,951
9904,948
9905,948
9906,950
9907,949
9908,948
9909,946
9910,945
9911,946
9912,953
9913,954
9914,952
9915,949
9916,947
9917,948
9918,949
9919,954
9920,953
9921,953
9922,953
9923,955
9924,958
9925,961
9926,962
9927,959
9928,961
9929,964
9930,967
9931,971
9932,973
9933,970
9934,971
9935,971
9936,973
9937,973
9938,971
9939,969
9940,966
9941,969
9942,969
9943,967
9944,965
9945,964
9946,966
9947,970
9948,969
9949,965
9950,962
9951,955
9952,951
9953,950
9954,946
9955,947
9956,945
9957,942
9958,941
9959,943
9960,945
9961,944
9962,943
9963,944
9964,943
9965,942
9966,946
9967,945
9968,945
9969,941
9970,938
9971,938
9972,941
9973,942
9974,943
9975,942
9976,942
9977,940
9978,942
9979,941
9980,939
9981,933
9982,924
9983,922
9984,920
9985,920
9986,910
9987,901
9988,893
9989,896
9990,910
9991,929
9992,952
9993,977
9994,1016
9995,1072
9996,1127
9997,1166
9998,1183
9999,1168
10000,1111
10001,1037
10002,974
10003,935
10004,917
10005,914
10006,922
10007,928
10008,934
10009,934
10010,935
10011,936
10012,933
10013,934
10014,934
10015,936
10016,936
10017,935
10018,934
10019,933
10020,935
10021,937
10022,938
10023,936
10024,933
10025,935
10026,935
10027,936
10028,937
10029,932
10030,932
10031,933
10032,931
10033,934
10034,935
10035,930
10036,927
10037,931
10038,932
10039,932
10040,934
10041,934
10042,930
10043,932
10044,933
10045,936
10046,937
10047,935
10048,934
10049,937
10050,936
10051,935
10052,935
10053,934
10054,934
10055,936
10056,937
10057,936
10058,935
10059,933
10060,929
10061,932
10062,934
10063,937
10064,936
10065,935
10066,933
10067,934
10068,937
10069,937
10070,934
10071,934
10072,932
10073,933
10074,936
10075,938
10076,939
10077,937
10078,932
10079,931
10080,935
10081,936
10082,936
10083,930
10084,928
10085,926
10086,928
10087,929
10088,927
10089,926
10090,925
10091,926
10092,926
10093,926
10094,925
10095,925
10096,922
10097,925
10098,925
10099,929
10100,929
10101,931
10102,929
10103,931
10104,938
10105,942
10106,943
10107,945
10108,943
10109,945
10110,950
10111,953
10112,951
10113,950
10114,950
10115,948
10116,950
10117,953
10118,952
10119,950
10120,950
10121,953
10122,956
10123,959
10124,959
10125,956
10126,955
10127,952
10128,955
10129,955
10130,953
10131,953
10132,951
10133,950
10134,951
10135,950
10136,950
10137,949
10138,949
10139,951
10140,952
10141,953
10142,953
10143,953
10144,949
10145,948
10146,947
10147,951
10148,951
10149,949
10150,948
10151,947
10152,947
10153,950
10154,948
10155,944
10156,942
10157,944
10158,947
10159,949
10160,948
10161,946
10162,942
10163,944
10164,945
10165,946
10166,946
10167,946
10168,944
10169,944
10170,946
10171,947
10172,946
10173,945
10174,945
10175,944
10176,944
10177,947
10178,946
10179,944
10180,944
10181,946
10182,948
10183,950
10184,950
10185,948
10186,943
10187,946
10188,946
10189,948
10190,948
10191,948
10192,946
10193,948
10194,948
10195,949
10196,948
10197,946
10198,942
10199,943
10200,945
10201,945
10202,947
10203,943
10204,943
10205,947
10206,950
10207,957
10208,959
10209,959
10210,955
10211,957
10212,959
10213,960
10214,960
10215,962
10216,962
10217,964
10218,966
10219,968
10220,967
10221,965
10222,963
10223,965
10224,966
10225,967
10226,966
10227,964
10228,961
10229,962
10230,962
10231,966
10232,969
10233,968
10234,964
10235,960
10236,956
10237,956
10238,950
10239,945
10240,940
10241,941
10242,939
10243,941
10244,942
10245,940
10246,939
10247,939
10248,938
10249,941
10250,942
10251,939
10252,936
10253,935
10254,937
10255,940
10256,942
10257,940
10258,937
10259,939
10260,939
10261,941
10262,940
10263,938
10264,937
10265,934
10266,930
10267,926
10268,920
10269,917
10270,913
10271,906
10272,901
10273,900
10274,913
10275,935
10276,959
10277,989
10278,1029
10279,1077
10280,1132
10281,1171
10282,1194
10283,1195
10284,1160
10285,1089
10286,1007
10287,946
10288,920
10289,913
10290,918
10291,926
10292,933
10293,933
10294,931
10295,931
10296,934
10297,936
10298,934
10299,935
10300,931
10301,936
10302,934
10303,937
10304,936
10305,934
10306,932
10307,930
10308,933
10309,933
10310,932
10311,929
10312,927
10313,929
10314,931
10315,933
10316,932
10317,932
10318,932
10319,932
10320,931
10321,934
10322,933
10323,932
10324,928
10325,930
10326,932
10327,931
10328,933
10329,932
10330,930
10331,933
10332,934
10333,933
10334,933
10335,933
10336,930
10337,928
10338,930
10339,933
10340,932
10341,930
10342,928
10343,930
10344,931
10345,933
10346,932
10347,932
10348,931
10349,930
10350,933
10351,935
10352,935
10353,934
10354,933
10355,934
10356,936
10357,939
10358,937
10359,936
10360,934
10361,933
10362,933
10363,934
10364,935
10365,932
10366,932
10367,930
10368,931
10369,932
10370,932
10371,929
10372,926
10373,928
10374,928
10375,929
10376,927
10377,926
10378,924
10379,926
10380,927
10381,926
10382,926
10383,928
10384,924
10385,924
10386,922
10387,928
10388,926
10389,926
10390,927
10391,929
10392,931
10393,935
10394,937
10395,939
10396,939
10397,940
10398,946
10399,948
10400,949
10401,950
10402,950
10403,950
10404,954
10405,957
10406,954
10407,954
10408,953
10409,957
10410,960
10411,960
10412,961
10413,959
10414,957
10415,958
10416,960
10417,960
10418,962
10419,958
10420,954
10421,955
10422,958
10423,958
10424,956
10425,956
10426,953
10427,953
10428,955
10429,957
10430,955
10431,954
10432,952
10433,954
10434,952
10435,954
10436,954
10437,954
10438,951
10439,950
10440,955
10441,958
10442,955
10443,954
10444,953
10445,953
10446,953
10447,956
10448,957
10449,951
10450,947
10451,947
10452,951
10453,951
10454,951
10455,951
10456,947
10457,945
10458,947
10459,949
10460,951
10461,948
10462,946
10463,949
10464,948
10465,951
10466,950
10467,950
10468,948
10469,948
10470,953
10471,951
10472,951
10473,950
10474,948
10475,949
10476,951
10477,951
10478,950
10479,950
10480,946
10481,947
10482,951
10483,952
10484,951
10485,949
10486,947
10487,946
10488,948
10489,950
10490,949
10491,946
10492,947
10493,947
10494,949
10495,950
10496,949
10497,947
10498,943
10499,947
10500,950
10501,950
10502,952
10503,949
10504,950
10505,949
10506,953
10507,956
10508,955
10509,956
10510,955
10511,959
10512,962
10513,963
10514,963
10515,964
10516,963
10517,964
10518,967
10519,971
10520,971
10521,970
10522,968
10523,969
10524,969
10525,971
10526,971
10527,969
10528,965
10529,966
10530,966
10531,970
10532,969
10533,967
10534,964
10535,965
10536,970
10537,976
10538,975
10539,972
10540,965
10541,962
10542,961
10543,959
10544,954
10545,951
10546,947
10547,948
10548,946
10549,950
10550,950
10551,949
10552,948
10553,946
10554,947
10555,946
10556,948
10557,946
10558,944
10559,943
10560,946
10561,947
10562,947
10563,945
10564,941
10565,943
10566,944
10567,947
10568,944
10569,944
10570,940
10571,940
10572,937
10573,934
10574,925
10575,920
10576,914
10577,913
10578,911
10579,908
10580,899
10581,892
10582,902
10583,923
10584,945
10585,976
10586,1007
10587,1047
10588,1101
10589,1156
10590,1197
10591,1215
10592,1206
10593,1156
10594,1078
10595,996
10596,939
10597,920
10598,921
10599,926
10600,931
10601,935
10602,938
10603,937
10604,937
10605,934
10606,933
10607,934
10608,934
10609,936
10610,935
10611,933
10612,932
10613,932
10614,934
10615,934
10616,935
10617,934
10618,931
10619,933
10620,936
10621,937
10622,937
10623,936
10624,932
10625,933
10626,937
10627,936
10628,933
10629,934
10630,932
10631,932
10632,934
10633,935
10634,936
10635,933
10636,931
10637,933
10638,935
10639,936
10640,937
10641,935
10642,933
10643,936
10644,939
10645,938
10646,938
10647,935
10648,934
10649,938
10650,937
10651,939
10652,938
10653,937
10654,934
10655,934
10656,934
10657,937
10658,934
10659,936
10660,933
10661,935
10662,936
10663,937
10664,934
10665,933
10666,933
10667,936
10668,936
10669,940
10670,940
10671,938
10672,935
10673,935
10674,939
10675,939
10676,940
10677,940
10678,936
10679,937
10680,938
10681,939
10682,937
10683,935
10684,932
10685,933
10686,935
10687,937
10688,937
10689,934
10690,933
10691,933
10692,935
10693,937
10694,934
10695,933
10696,935
10697,933
10698,936
10699,938
10700,941
10701,939
10702,938
10703,942
10704,945
10705,948
10706,951
10707,951
10708,950
10709,950
10710,954
10711,956
10712,957
10713,955
10714,953
10715,955
10716,956
10717,958
10718,956
10719,957
10720,953
10721,956
10722,957
10723,960
10724,959
10725,957
10726,953
10727,958
10728,959
10729,959
10730,959
10731,959
10732,954
10733,957
10734,959
10735,960
10736,959
10737,957
10738,957
10739,956
10740,959
10741,959
10742,958
10743,957
10744,955
10745,953
10746,956
10747,955
10748,956
10749,953
10750,952
10751,951
10752,952
10753,953
10754,953
10755,951
10756,950
10757,951
10758,951
10759,953
10760,953
10761,952
10762,950
10763,950
10764,950
10765,952
10766,951
10767,951
10768,947
10769,947
10770,947
10771,949
10772,948
10773,946
10774,944
10775,944
10776,947
10777,947
10778,947
10779,946
10780,944
10781,943
10782,946
10783,948
10784,948
10785,946
10786,943
10787,945
10788,946
10789,947
10790,948
10791,948
10792,946
10793,949
10794,951
10795,951
10796,949
10797,949
10798,947
10799,947
10800,947
10801,951
10802,949
10803,948
10804,946
10805,947
10806,949
10807,952
10808,950
10809,948
10810,946
10811,946
10812,949
10813,951
10814,949
10815,952
10816,950
10817,953
10818,960
10819,962
10820,964
10821,964
10822,962
10823,962
10824,967
10825,970
10826,973
10827,969
10828,969
10829,970
10830,969
10831,970
10832,968
10833,965
10834,962
10835,963
10836,965
10837,967
10838,967
10839,965
10840,961
10841,961
10842,962
10843,964
10844,966
10845,965
10846,967
10847,971
10848,971
10849,966
10850,963
10851,959
10852,953
10853,951
10854,949
10855,948
10856,947
10857,947
10858,943
10859,944
10860,947
10861,947
10862,945
10863,944
10864,940
10865,942
10866,943
10867,944
10868,943
10869,942
10870,939
10871,940
10872,940
10873,944
10874,943
10875,941
10876,938
10877,938
10878,937
10879,933
10880,925
10881,916
10882,912
10883,906
10884,898
10885,898
10886,911
10887,935
10888,959
10889,986
10890,1024
10891,1073
10892,1128
10893,1168
10894,1191
10895,1195
10896,1172
10897,1122
10898,1049
10899,986
10900,939
10901,917
10902,907
10903,907
10904,914
10905,923
10906,928
10907,932
10908,934
10909,936
10910,936
10911,937
10912,934
10913,934
10914,934
10915,935
10916,937
10917,934
10918,933
10919,932
10920,931
10921,937
10922,935
10923,934
10924,934
10925,932
10926,933
10927,935
10928,935
10929,931
10930,930
10931,934
10932,933
10933,939
10934,938
10935,938
10936,933
10937,936
10938,937
10939,939
10940,937
10941,937
10942,935
10943,934
10944,936
10945,936
10946,937
10947,936
10948,936
10949,935
10950,939
10951,940
10952,941
10953,939
10954,935
10955,934
10956,937
10957,939
10958,938
10959,934
10960,934
10961,936
10962,934
10963,939
10964,937
10965,935
10966,934
10967,935
10968,936
10969,939
10970,938
10971,934
10972,934
10973,935
10974,938
10975,938
10976,937
10977,937
10978,935
10979,935
10980,938
10981,939
10982,938
10983,935
10984,937
10985,938
10986,938
10987,939
10988,940
10989,939
10990,936
10991,936
10992,937
10993,937
10994,937
10995,936
10996,933
10997,933
10998,937
10999,939
11000,938
11001,938
11002,936
11003,938
11004,938
11005,940
11006,940
11007,938
11008,939
11009,941
11010,947
11011,949
11012,951
11013,951
11014,950
11015,953
11016,951
11017,954
11018,956
11019,955
11020,955
11021,954
11022,953
11023,955
11024,957
11025,957
11026,955
11027,955
11028,956
11029,958
11030,957
11031,953
11032,952
11033,952
11034,953
11035,955
11036,956
11037,955
11038,954
11039,953
11040,956
11041,956
11042,956
11043,954
11044,949
11045,952
11046,953
11047,956
11048,955
11049,952
11050,947
11051,949
11052,951
11053,952
11054,951
11055,947
11056,945
11057,945
11058,948
11059,948
11060,949
11061,948
11062,944
11063,945
11064,949
11065,949
11066,947
11067,945
11068,944
11069,942
11070,946
11071,947
11072,948
11073,946
11074,941
11075,942
11076,944
11077,945
11078,947
11079,944
11080,940
11081,939
11082,941
11083,942
11084,942
11085,938
11086,938
11087,938
11088,940
11089,940
11090,941
11091,940
11092,940
11093,941
11094,941
11095,944
11096,946
11097,944
11098,942
11099,941
11100,943
11101,944
11102,944
11103,942
11104,940
11105,940
11106,942
11107,944
11108,941
11109,940
11110,938
11111,939
11112,942
11113,945
11114,948
11115,949
11116,950
11117,953
11118,955
11119,957
11120,957
11121,957
11122,957
11123,962
11124,964
11125,963
11126,965
11127,966
11128,964
11129,964
11130,965
11131,965
11132,963
11133,961
11134,958
11135,959
11136,959
11137,960
11138,961
11139,958
11140,953
11141,955
11142,960
11143,965
11144,963
11145,959
11146,949
11147,948
11148,947
11149,945
11150,943
11151,940
11152,937
11153,938
11154,940
11155,943
11156,944
11157,941
11158,937
11159,936
11160,934
11161,938
11162,936
11163,935
11164,934
11165,933
11166,934
11167,937
11168,936
11169,934
11170,932
11171,935
11172,936
11173,937
11174,938
11175,937
11176,932
11177,926
11178,922
11179,919
11180,914
11181,905
11182,895
11183,895
11184,913
11185,937
11186,963
11187,997
11188,1045
11189,1104
11190,1155
11191,1183
11192,1182
11193,1144
11194,1070
11195,995
11196,944
11197,920
11198,912
11199,914
11200,923
11201,931
11202,932
11203,933
11204,933
11205,934
11206,931
11207,932
11208,931
11209,930
11210,930
11211,930
11212,926
11213,927
11214,930
11215,931
11216,932
11217,931
11218,930
11219,928
11220,929
11221,931
11222,933
11223,929
11224,928
11225,932
11226,934
11227,936
11228,935
11229,935
11230,932
11231,933
11232,933
11233,931
11234,933
11235,928
11236,931
11237,931
11238,933
11239,933
11240,932
11241,929
11242,928
11243,930
11244,931
11245,933
11246,931
11247,934
11248,933
11249,934
11250,937
11251,938
11252,936
11253,935
11254,933
11255,933
11256,934
11257,936
11258,937
11259,933
11260,931
11261,933
11262,936
11263,936
11264,936
11265,936
11266,932
11267,933
11268,934
11269,938
11270,937
11271,933
11272,929
11273,929
11274,930
11275,932
11276,930
11277,931
11278,927
11279,926
11280,931
11281,932
11282,932
11283,929
11284,926
11285,924
11286,925
11287,927
11288,930
11289,927
11290,924
11291,924
11292,926
11293,929
11294,929
11295,931
11296,928
11297,933
11298,935
11299,939
11300,942
11301,943
11302,940
11303,940
11304,944
11305,949
11306,952
11307,952
11308,949
11309,952
11310,955
11311,959
11312,959
11313,956
11314,955
11315,952
11316,953
11317,953
11318,953
11319,951
11320,952
11321,953
11322,958
11323,957
11324,954
11325,955
11326,952
11327,953
11328,950
11329,956
11330,957
11331,957
11332,955
11333,954
11334,954
11335,956
11336,955
11337,952
11338,951
11339,952
11340,954
11341,954
11342,954
11343,951
11344,948
11345,949
11346,950
11347,950
11348,951
11349,951
11350,949
11351,948
11352,949
11353,950
11354,949
11355,946
11356,942
11357,944
11358,946
11359,951
11360,950
11361,949
11362,946
11363,947
11364,949
11365,951
11366,949
11367,945
11368,943
11369,943
11370,945
11371,946
11372,944
11373,944
11374,944
11375,943
11376,943
11377,946
11378,946
11379,945
11380,944
11381,942
11382,944
11383,947
11384,949
11385,945
11386,945
11387,945
11388,947
11389,948
11390,947
11391,948
11392,948
11393,948
11394,950
11395,948
11396,950
11397,948
11398,947
11399,944
11400,949
11401,951
11402,955
11403,953
11404,954
11405,954
11406,958
11407,961
11408,962
11409,963
11410,961
11411,961
11412,964
11413,969
11414,968
11415,967
11416,966
11417,967
11418,970
11419,970
11420,969
11421,969
11422,967
11423,966
11424,965
11425,967
11426,967
11427,967
11428,964
11429,964
11430,965
11431,966
11432,970
11433,970
11434,967
11435,964
11436,961
11437,960
11438,958
11439,952
11440,946
11441,945
11442,941
11443,945
11444,944
11445,945
11446,943
11447,941
11448,944
11449,943
11450,944
11451,943
11452,943
11453,942
11454,943
11455,944
11456,942
11457,940
11458,938
11459,939
11460,940
11461,943
11462,940
11463,941
11464,937
11465,935
11466,930
11467,924
11468,920
11469,915
11470,905
11471,899
11472,906
11473,926
11474,956
11475,985
11476,1021
11477,1073
11478,1128
11479,1173
11480,1201
11481,1200
11482,1160
11483,1089
11484,1008
11485,953
11486,924
11487,914
11488,917
11489,927
11490,933
11491,936
11492,935
11493,936
11494,935
11495,936
11496,938
11497,939
11498,941
11499,937
11500,934
11501,935
11502,938
11503,939
11504,938
11505,936
11506,932
11507,933
11508,932
11509,933
11510,936
11511,934
11512,933
11513,932
11514,934
11515,937
11516,938
11517,936
11518,932
11519,932
11520,934
11521,936
11522,937
11523,937
11524,936
11525,936
11526,939
11527,939
11528,938
11529,937
11530,935
11531,935
11532,936
11533,937
11534,933
11535,936
11536,933
11537,935
11538,934
11539,936
11540,936
11541,935
11542,934
11543,935
11544,937
11545,938
11546,939
11547,938
11548,936
11549,937
11550,939
11551,938
11552,941
11553,937
11554,934
11555,936
11556,938
11557,939
11558,940
11559,937
11560,935
11561,936
11562,937
11563,938
11564,936
11565,933
11566,932
11567,930
11568,933
11569,933
11570,931
11571,930
11572,927
11573,927
11574,929
11575,929
11576,929
11577,930
11578,928
11579,929
11580,929
11581,932
11582,931
11583,930
11584,931
11585,931
11586,934
11587,935
11588,938
11589,937
11590,937
11591,939
11592,944
11593,948
11594,951
11595,951
11596,946
11597,951
11598,951
11599,956
11600,955
11601,958
11602,954
11603,957
11604,960
11605,959
11606,960
11607,961
11608,957
11609,958
11610,960
11611,961
11612,962
11613,961
11614,959
11615,958
11616,961
11617,960
11618,960
11619,960
11620,957
11621,955
11622,958
11623,958
11624,959
11625,957
11626,955
11627,957
11628,959
11629,959
11630,957
11631,957
11632,955
11633,955
11634,955
11635,958
11636,959
11637,956
11638,957
11639,957
11640,959
11641,961
11642,961
11643,957
11644,956
11645,956
11646,958
11647,956
11648,959
11649,957
11650,953
11651,954
11652,956
11653,957
11654,956
11655,956
11656,952
11657,951
11658,953
11659,954
11660,955
11661,955
11662,953
11663,949
11664,955
11665,956
11666,953
11667,954
11668,951
11669,954
11670,953
11671,956
11672,954
11673,954
11674,954
11675,953
11676,958
11677,957
11678,957
11679,956
11680,952
11681,954
11682,956
11683,957
11684,955
11685,955
11686,952
11687,952
11688,953
11689,955
11690,954
11691,949
11692,947
11693,952
11694,953
11695,956
11696,955
11697,954
11698,951
11699,952
11700,955
11701,956
11702,956
11703,956
11704,955
11705,957
11706,959
11707,966
11708,968
11709,967
11710,965
11711,966
11712,969
11713,969
11714,972
11715,974
11716,972
11717,975
11718,978
11719,978
11720,976
11721,976
11722,974
11723,971
11724,974
11725,975
11726,977
11727,974
11728,968
11729,970
11730,976
11731,980
11732,982
11733,977
11734,967
11735,966
11736,961
11737,962
11738,962
11739,956
11740,952
11741,955
11742,955
11743,956
11744,951
11745,953
11746,948
11747,951
11748,953
11749,952
11750,953
11751,952
11752,949
11753,948
11754,950
11755,951
11756,952
11757,952
11758,949
11759,949
11760,949
11761,953
11762,951
11763,951
11764,946
11765,941
11766,938
11767,930
11768,924
11769,919
11770,908
11771,904
11772,912
11773,935
11774,963
11775,992
11776,1023
11777,1070
11778,1131
11779,1183
11780,1221
11781,1234
11782,1219
11783,1167
11784,1078
11785,995
11786,942
11787,920
11788,924
11789,937
11790,946
11791,946
11792,944
11793,942
11794,940
11795,941
11796,943
11797,942
11798,941
11799,940
11800,937
11801,937
11802,939
11803,940
11804,939
11805,938
11806,937
11807,938
11808,939
11809,942
11810,941
11811,940
11812,938
11813,937
11814,938
11815,939
11816,938
11817,936
11818,936
11819,936
11820,938
11821,940
11822,939
11823,939
11824,937
11825,938
11826,937
11827,938
11828,939
11829,938
11830,937
11831,939
11832,940
11833,940
11834,940
11835,940
11836,936
11837,937
11838,938
11839,939
11840,937
11841,936
11842,935
11843,937
11844,937
11845,939
11846,939
11847,937
11848,935
11849,937
11850,935
11851,940
11852,939
11853,938
11854,936
11855,937
11856,940
11857,940
11858,940
11859,941
11860,938
11861,938
11862,938
11863,941
11864,939
11865,937
11866,934
11867,935
11868,936
11869,937
11870,936
11871,937
11872,935
11873,936
11874,936
11875,939
11876,939
11877,939
11878,938
11879,937
11880,942
11881,945
11882,945
11883,946
